# SAXS profile: number of points = 500, q_min = 0, q_max = 0.5, delta_q = 0.001
#    q    intensity 
0.00000    18740171.47633088 
0.00100    18736527.97745204 
0.00200    18725601.78482640 
0.00300    18707407.33613002 
0.00400    18681965.61260498 
0.00500    18649311.74102104 
0.00600    18609484.18914664 
0.00700    18562535.22744489 
0.00800    18508519.89211071 
0.00900    18447513.58861077 
0.01000    18379582.12641251 
0.01100    18304819.62457538 
0.01200    18223310.89952469 
0.01300    18135166.35039353 
0.01400    18040483.22110164 
0.01500    17939390.46035886 
0.01600    17831993.61843467 
0.01700    17718446.24834132 
0.01800    17598866.24457228 
0.01900    17473407.97142625 
0.02000    17342212.45424604 
0.02100    17205453.94663024 
0.02200    17063264.75590718 
0.02300    16915836.58296633 
0.02400    16763325.00656152 
0.02500    16605919.98727322 
0.02600    16443789.60217857 
0.02700    16277126.56445086 
0.02800    16106100.90359545 
0.02900    15930926.75764608 
0.03000    15751778.89362347 
0.03100    15568860.57334340 
0.03200    15382361.11341178 
0.03300    15192498.85051465 
0.03400    14999445.10508668 
0.03500    14803424.51332420 
0.03600    14604619.35502207 
0.03700    14403248.73468500 
0.03800    14199500.24929243 
0.03900    13993589.31439614 
0.04000    13785687.77853143 
0.04100    13576025.96449363 
0.04200    13364784.65637439 
0.04300    13152157.38201499 
0.04400    12938342.04562086 
0.04500    12723536.95667535 
0.04600    12507906.85241634 
0.04700    12291657.70009953 
0.04800    12074960.64359939 
0.04900    11858008.67892408 
0.05000    11640957.43089223 
0.05100    11423991.88599551 
0.05200    11207259.21591014 
0.05300    10990949.27833253 
0.05400    10775200.45327389 
0.05500    10560175.22809434 
0.05600    10346013.77144486 
0.05700    10132880.74389267 
0.05800    9920889.38981462 
0.05900    9710184.42245167 
0.06000    9500895.90082055 
0.06100    9293153.66318583 
0.06200    9087073.39099765 
0.06300    8882769.41655242 
0.06400    8680327.80740416 
0.06500    8479884.78255200 
0.06600    8281522.95463896 
0.06700    8085329.63571316 
0.06800    7891399.69637620 
0.06900    7699819.87378603 
0.07000    7510652.10215831 
0.07100    7323974.89407551 
0.07200    7139852.46373692 
0.07300    6958362.98626119 
0.07400    6779543.11270013 
0.07500    6603449.02383992 
0.07600    6430123.24172735 
0.07700    6259626.17998612 
0.07800    6091972.64722607 
0.07900    5927204.74912399 
0.08000    5765357.96564001 
0.08100    5606457.03967205 
0.08200    5450506.78357339 
0.08300    5297535.62721178 
0.08400    5147555.08009318 
0.08500    5000576.00147408 
0.08600    4856601.42097786 
0.08700    4715634.72491518 
0.08800    4577664.75705385 
0.08900    4442700.18687043 
0.09000    4310732.10929447 
0.09100    4181740.69522473 
0.09200    4055716.04098558 
0.09300    3932654.54378510 
0.09400    3812514.36630264 
0.09500    3695290.16531301 
0.09600    3580959.95322993 
0.09700    3469499.67965777 
0.09800    3360879.10105649 
0.09900    3255071.98841347 
0.10000    3152034.11887763 
0.10100    3051745.30195518 
0.10200    2954176.22556072 
0.10300    2859278.62437899 
0.10400    2767024.70493038 
0.10500    2677389.11218835 
0.10600    2590296.61718021 
0.10700    2505743.58387573 
0.10800    2423671.72841796 
0.10900    2344043.98045607 
0.11000    2266818.20627780 
0.11100    2191954.36547527 
0.11200    2119399.93741736 
0.11300    2049119.15382376 
0.11400    1981071.18512283 
0.11500    1915204.35478491 
0.11600    1851474.53284985 
0.11700    1789845.08780394 
0.11800    1730249.34685431 
0.11900    1672660.47215485 
0.12000    1617023.57088568 
0.12100    1563313.49520821 
0.12200    1511459.05610197 
0.12300    1461429.00322395 
0.12400    1413170.99730389 
0.12500    1366641.27464944 
0.12600    1321810.10713151 
0.12700    1278613.03030722 
0.12800    1237012.92879219 
0.12900    1196970.78583379 
0.13000    1158438.08164837 
0.13100    1121366.70809379 
0.13200    1085722.88654853 
0.13300    1051465.97712541 
0.13400    1018546.23338911 
0.13500    986926.34316252 
0.13600    956564.75394782 
0.13700    927421.52454027 
0.13800    899455.03176647 
0.13900    872631.14839981 
0.14000    846909.29147056 
0.14100    822251.29779762 
0.14200    798618.10392194 
0.14300    775975.07996196 
0.14400    754280.48768040 
0.14500    733511.42167521 
0.14600    713626.62408138 
0.14700    694592.50563323 
0.14800    676371.60069991 
0.14900    658934.10644463 
0.15000    642251.32202807 
0.15100    626289.94148728 
0.15200    611025.91268439 
0.15300    596421.37003107 
0.15400    582445.33395544 
0.15500    569078.72713919 
0.15600    556286.99616031 
0.15700    544054.02745370 
0.15800    532338.46485458 
0.15900    521129.89872817 
0.16000    510394.51530621 
0.16100    500120.80073466 
0.16200    490272.90991301 
0.16300    480834.56434571 
0.16400    471787.67894410 
0.16500    463106.88153306 
0.16600    454777.02678140 
0.16700    446772.72525462 
0.16800    439078.51607630 
0.16900    431686.77586883 
0.17000    424567.20903220 
0.17100    417708.96888247 
0.17200    411099.08642189 
0.17300    404720.73101169 
0.17400    398562.91338859 
0.17500    392609.82381936 
0.17600    386842.51493300 
0.17700    381261.33499650 
0.17800    375846.41542283 
0.17900    370592.42337961 
0.18000    365485.88686891 
0.18100    360524.53222892 
0.18200    355680.78933416 
0.18300    350963.31228442 
0.18400    346358.58737181 
0.18500    341860.73763690 
0.18600    337458.87835171 
0.18700    333151.06161591 
0.18800    328925.49104627 
0.18900    324786.81890780 
0.19000    320712.33982393 
0.19100    316722.16267581 
0.19200    312785.00508218 
0.19300    308918.03961747 
0.19400    305101.78877014 
0.19500    301342.66309238 
0.19600    297631.76009359 
0.19700    293970.81695121 
0.19800    290352.25063548 
0.19900    286780.05019711 
0.20000    283243.15681910 
0.20100    279747.88924931 
0.20200    276287.10319190 
0.20300    272863.06838861 
0.20400    269471.88076396 
0.20500    266113.04461770 
0.20600    262781.31418528 
0.20700    259484.07611965 
0.20800    256211.75426792 
0.20900    252976.83646106 
0.21000    249760.38345606 
0.21100    246575.16434318 
0.21200    243415.97304083 
0.21300    240281.57799308 
0.21400    237175.30568934 
0.21500    234098.52997709 
0.21600    231041.26840460 
0.21700    228012.28278869 
0.21800    225008.68831876 
0.21900    222028.31926769 
0.22000    219073.71332275 
0.22100    216148.19130773 
0.22200    213247.95823221 
0.22300    210370.27502144 
0.22400    207517.58706091 
0.22500    204696.83224106 
0.22600    201896.24569121 
0.22700    199127.08418204 
0.22800    196381.94277361 
0.22900    193661.60305384 
0.23000    190971.93763469 
0.23100    188307.93190449 
0.23200    185670.54593140 
0.23300    183061.86459781 
0.23400    180482.41417004 
0.23500    177925.77575017 
0.23600    175402.45362674 
0.23700    172907.31416254 
0.23800    170441.80905004 
0.23900    168003.23081499 
0.24000    165594.29989013 
0.24100    163220.65981978 
0.24200    160875.31703644 
0.24300    158558.91339281 
0.24400    156275.33485556 
0.24500    154021.14204005 
0.24600    151800.51096746 
0.24700    149612.48953441 
0.24800    147457.45111587 
0.24900    145332.82752096 
0.25000    143243.47758102 
0.25100    141184.97816205 
0.25200    139165.67068517 
0.25300    137177.33139197 
0.25400    135225.18730207 
0.25500    133307.26668826 
0.25600    131425.43683522 
0.25700    129577.60553218 
0.25800    127768.53103708 
0.25900    125993.79798742 
0.26000    124257.57766503 
0.26100    122555.49650831 
0.26200    120895.09566783 
0.26300    119266.43125203 
0.26400    117678.66437222 
0.26500    116128.86128410 
0.26600    114615.78307845 
0.26700    113143.16479192 
0.26800    111709.39422970 
0.26900    110311.06728141 
0.27000    108954.47499353 
0.27100    107633.78867943 
0.27200    106357.01633828 
0.27300    105114.59932683 
0.27400    103907.05911634 
0.27500    102744.90071684 
0.27600    101615.40242088 
0.27700    100528.11985572 
0.27800    99478.08950187  
0.27900    98464.78724977  
0.28000    97490.29223973  
0.28100    96551.52455786  
0.28200    95652.60235872  
0.28300    94787.95592530  
0.28400    93959.98392399  
0.28500    93169.46644505  
0.28600    92411.53435116  
0.28700    91689.77466819  
0.28800    91001.82248135  
0.28900    90349.22601927  
0.29000    89727.67449696  
0.29100    89141.08544188  
0.29200    88585.76202511  
0.29300    88061.83433516  
0.29400    87565.95332676  
0.29500    87103.74121584  
0.29600    86667.70590966  
0.29700    86259.28924433  
0.29800    85880.59343086  
0.29900    85529.06097041  
0.30000    85201.46806852  
0.30100    84899.63068486  
0.30200    84621.51233520  
0.30300    84368.14935397  
0.30400    84136.41831050  
0.30500    83924.79018175  
0.30600    83733.40230117  
0.30700    83564.72604462  
0.30800    83412.28577857  
0.30900    83279.53890153  
0.31000    83161.49247242  
0.31100    83062.06998394  
0.31200    82975.18009524  
0.31300    82904.09151277  
0.31400    82846.14888430  
0.31500    82799.33121881  
0.31600    82765.14263477  
0.31700    82742.71983147  
0.31800    82726.24812374  
0.31900    82723.79510363  
0.32000    82726.36750618  
0.32100    82736.14414599  
0.32200    82754.16061746  
0.32300    82775.17194807  
0.32400    82801.69872272  
0.32500    82832.94405144  
0.32600    82865.30521464  
0.32700    82901.66007882  
0.32800    82941.55622074  
0.32900    82979.68998514  
0.33000    83020.42285513  
0.33100    83058.64572411  
0.33200    83098.61235489  
0.33300    83135.81007827  
0.33400    83171.21615040  
0.33500    83202.90068845  
0.33600    83231.76217685  
0.33700    83256.70244386  
0.33800    83278.26164228  
0.33900    83294.73141247  
0.34000    83304.41231334  
0.34100    83309.56686162  
0.34200    83310.85403006  
0.34300    83302.94967791  
0.34400    83291.26118302  
0.34500    83270.88262793  
0.34600    83244.91733037  
0.34700    83209.38162639  
0.34800    83165.59182165  
0.34900    83115.79239881  
0.35000    83056.96977245  
0.35100    82990.36103465  
0.35200    82913.52158035  
0.35300    82828.85144945  
0.35400    82734.80661546  
0.35500    82633.25084569  
0.35600    82522.09277919  
0.35700    82401.90124912  
0.35800    82273.34301037  
0.35900    82135.43829911  
0.36000    81990.22288897  
0.36100    81834.94858051  
0.36200    81672.40250548  
0.36300    81499.21658501  
0.36400    81317.42563140  
0.36500    81127.07030547  
0.36600    80931.64972338  
0.36700    80725.59767998  
0.36800    80514.62313726  
0.36900    80296.10696020  
0.37000    80066.64297998  
0.37100    79830.58211496  
0.37200    79591.10915313  
0.37300    79342.53651987  
0.37400    79089.99775516  
0.37500    78832.62452822  
0.37600    78567.21217448  
0.37700    78297.15973778  
0.37800    78024.08653843  
0.37900    77746.41281765  
0.38000    77463.92985203  
0.38100    77178.26160611  
0.38200    76889.04730008  
0.38300    76596.55320176  
0.38400    76303.89504023  
0.38500    76006.50530508  
0.38600    75711.21847524  
0.38700    75411.19588797  
0.38800    75111.91782169  
0.38900    74812.54625638  
0.39000    74513.99458626  
0.39100    74215.87925077  
0.39200    73919.73160736  
0.39300    73622.79352839  
0.39400    73331.21508877  
0.39500    73039.26239278  
0.39600    72749.97335720  
0.39700    72464.65619954  
0.39800    72183.60363117  
0.39900    71906.13255400  
0.40000    71633.10478434  
0.40100    71363.04784462  
0.40200    71100.89078306  
0.40300    70842.02650896  
0.40400    70589.68503576  
0.40500    70343.67328193  
0.40600    70106.35881254  
0.40700    69872.78537477  
0.40800    69646.93020846  
0.40900    69428.36012754  
0.41000    69219.26646922  
0.41100    69016.74476991  
0.41200    68821.67186933  
0.41300    68636.22296971  
0.41400    68459.88624287  
0.41500    68291.55504037  
0.41600    68130.06454470  
0.41700    67980.78244725  
0.41800    67841.16506013  
0.41900    67706.80990386  
0.42000    67586.24801529  
0.42100    67474.23325168  
0.42200    67372.42553176  
0.42300    67278.42879356  
0.42400    67195.35197885  
0.42500    67122.80462865  
0.42600    67058.32590444  
0.42700    67005.89658675  
0.42800    66961.85022914  
0.42900    66929.21042357  
0.43000    66905.18217101  
0.43100    66889.82357444  
0.43200    66885.60190536  
0.43300    66889.99983907  
0.43400    66903.38096067  
0.43500    66926.64829515  
0.43600    66962.10286820  
0.43700    67002.34384960  
0.43800    67051.27225555  
0.43900    67111.06323813  
0.44000    67178.11982785  
0.44100    67253.44778887  
0.44200    67338.20100191  
0.44300    67428.45571628  
0.44400    67528.49262720  
0.44500    67632.32697711  
0.44600    67745.14354316  
0.44700    67865.45964026  
0.44800    67991.08707252  
0.44900    68124.05755868  
0.45000    68263.90773400  
0.45100    68405.31422831  
0.45200    68554.79580820  
0.45300    68708.74495164  
0.45400    68866.98683153  
0.45500    69029.90077357  
0.45600    69196.50384809  
0.45700    69366.76031927  
0.45800    69539.94414754  
0.45900    69716.24469454  
0.46000    69897.64487026  
0.46100    70076.65881320  
0.46200    70261.02542493  
0.46300    70445.46686843  
0.46400    70632.13771239  
0.46500    70819.13774988  
0.46600    71007.13270403  
0.46700    71193.58571537  
0.46800    71382.91780276  
0.46900    71568.63940013  
0.47000    71755.08780877  
0.47100    71940.56993236  
0.47200    72124.47237879  
0.47300    72307.29996253  
0.47400    72486.20022720  
0.47500    72664.41156370  
0.47600    72840.77990948  
0.47700    73011.03933020  
0.47800    73180.50577745  
0.47900    73346.26768143  
0.48000    73507.00258205  
0.48100    73666.65771581  
0.48200    73817.75713502  
0.48300    73965.63732175  
0.48400    74110.77583694  
0.48500    74249.14986936  
0.48600    74383.80045072  
0.48700    74511.93048234  
0.48800    74633.51806585  
0.48900    74750.06479507  
0.49000    74860.99973547  
0.49100    74966.12265738  
0.49200    75064.17591977  
0.49300    75156.49296352  
0.49400    75241.78520742  
0.49500    75320.12137791  
0.49600    75392.60386725  
0.49700    75457.34411403  
0.49800    75516.01355982  
0.49900    75567.02868758  
