# SAXS profile: number of points = 501, q_min = 0, q_max = 0.5, delta_q = 0.001
#    q    intensity    error
0.00000    34902244.16337204 7329.47127431
0.00100    34895302.54456067 11515.45011318
0.00200    34874484.67945170 17262.87046296
0.00300    34839815.95173764 25084.66837884
0.00400    34791331.37535501 31312.19942762
0.00500    34729092.34070015 37507.42121255
0.00600    34653164.06334400 36385.82374785
0.00700    34563637.14994240 41476.36630370
0.00800    34460605.37069511 55826.18305751
0.00900    34344199.51095724 66971.19190923
0.01000    34214531.68976665 67744.77567092
0.01100    34071766.22529411 67462.10006334
0.01200    33916047.44061708 99204.44311330
0.01300    33747569.44039106 106304.84842578
0.01400    33566497.56129122 98182.00971928
0.01500    33373058.03424048 112133.47998822
0.01600    33167433.99100256 93034.65650374
0.01700    32949893.63884974 97861.18849731
0.01800    32720641.32644534 111904.59837188
0.01900    32479951.32298708 97439.85836570
0.02000    32228067.49160647 182733.15094346
0.02100    31965299.70722365 147679.69134295
0.02200    31691879.83871078 109336.99041099
0.02300    31408149.20259070 146990.14495888
0.02400    31114382.28042889 151682.62053345
0.02500    30810919.21509588 168227.62659748
0.02600    30498060.35747600 172924.01013614
0.02700    30176156.55746603 164761.82235004
0.02800    29845504.96402597 142810.74780211
0.02900    29506502.12845755 159335.11880942
0.03000    29159458.93273389 149150.63929668
0.03100    28804749.41738713 193567.92499151
0.03200    28442719.68098569 154870.61579602
0.03300    28073774.72609305 157493.88347392
0.03400    27698224.48165953 145415.68523825
0.03500    27316491.28937531 147509.05977431
0.03600    26928913.58678401 164401.02504490
0.03700    26535905.33483350 166380.13414407
0.03800    26137815.11015618 183487.47056502
0.03900    25735055.26871574 185292.40651565
0.04000    25327951.18292737 249227.05118893
0.04100    24916948.06628335 188372.13611527
0.04200    24502388.39686632 158040.41249173
0.04300    24084652.94463348 158958.71681312
0.04400    23664120.17600918 191679.38232764
0.04500    23241187.78965783 208473.46415993
0.04600    22816179.73984432 241281.11196526
0.04700    22389502.58303082 209565.75392364
0.04800    21961499.17210782 193700.43171051
0.04900    21532558.28785324 161494.19467605
0.05000    21102996.58558726 242156.89709592
0.05100    20673193.86578798 290251.65539676
0.05200    20243451.47479260 160935.44672440
0.05300    19814159.49817801 160494.69941716
0.05400    19385615.20407939 175924.46618106
0.05500    18958155.44003987 222947.91837523
0.05600    18532079.59282875 174294.21670385
0.05700    18107739.60070884 189044.81025573
0.05800    17685378.09696853 234773.40519939
0.05900    17265319.59669006 186465.46035328
0.06000    16847837.40156245 184989.26331163
0.06100    16433225.88719499 229243.51183923
0.06200    16021739.62675846 242248.71448015
0.06300    15613641.98319685 149890.97004689
0.06400    15209137.06747448 148289.09334287
0.06500    14808525.23211479 190585.72865250
0.06600    14411999.65207642 159324.66360827
0.06700    14019780.02959645 171602.11559306
0.06800    13632078.58256161 183419.62591407
0.06900    13249107.68307978 250408.14693405
0.07000    12871026.28103346 150784.07994329
0.07100    12498022.20914447 148476.51079894
0.07200    12130262.16548109 132826.37693451
0.07300    11767931.48424059 169811.25927420
0.07400    11411136.91755521 205400.47414191
0.07500    11060028.46210623 201734.92860463
0.07600    10714726.32548624 160881.62331940
0.07700    10375372.39189965 206366.16655109
0.07800    10042030.81566393 130897.87782079
0.07900    9714819.94664508 128235.62931044
0.08000    9393833.28546852 125548.58774990
0.08100    9079148.81051654 167510.30341331
0.08200    8770803.50722998 131035.81054690
0.08300    8468878.49015731 202744.96056959
0.08400    8173418.11606085 125053.30304556
0.08500    7884465.20596904 101709.60593177
0.08600    7602046.78483635 138889.40128003
0.08700    7326184.24286962 106376.20020165
0.08800    7056876.71937329 94209.30862806
0.08900    6794149.63793167 110065.22930422
0.09000    6537999.29377374 133865.54182842
0.09100    6288400.83446646 86779.93559266
0.09200    6045334.56136459 101198.90531225
0.09300    5808804.15816662 98284.97097480
0.09400    5578732.85108593 95396.33623696
0.09500    5355111.95021045 115670.42356137
0.09600    5137893.49705780 104658.89545485
0.09700    4927031.21502763 94155.57094569
0.09800    4722460.86039597 70128.54707416
0.09900    4524128.12713069 108579.08015679
0.10000    4331935.14930016 72191.70265806
0.10100    4145837.57310987 95146.97677780
0.10200    3965761.66609544 110287.83712165
0.10300    3791600.02668557 82808.54847819
0.10400    3623287.82013333 62773.46443699
0.10500    3460754.21123177 66031.19345703
0.10600    3303841.67944497 84842.65832029
0.10700    3152522.15540670 81713.37811338
0.10800    3006657.88605267 58990.63050055
0.10900    2866159.47653373 61479.12366520
0.11000    2730918.68378222 59110.73769278
0.11100    2600837.21843594 43694.06732655
0.11200    2475790.11455587 50357.57330076
0.11300    2355680.06469283 44310.34410304
0.11400    2240400.64171012 50240.98675592
0.11500    2129827.88104446 40764.90756273
0.11600    2023848.42715907 42622.24988312
0.11700    1922362.94361414 37428.40827486
0.11800    1825217.83336908 35838.15384612
0.11900    1732333.91410044 34300.21311478
0.12000    1643574.05909152 35797.04469323
0.12100    1558857.11229922 31379.79514883
0.12200    1478029.48023647 38177.50327310
0.12300    1400993.03092001 41693.55456455
0.12400    1327624.32675345 32360.84448938
0.12500    1257811.60166453 30904.43250913
0.12600    1191465.81008564 31776.39465240
0.12700    1128442.18887258 23832.70015214
0.12800    1068639.48799793 24813.81008077
0.12900    1011960.10071404 19733.22289399
0.13000    958285.16339999 24479.39565289
0.13100    907499.77985601 19765.34613696
0.13200    859511.67614691 22291.43637170
0.13300    814220.71001616 21275.58815572
0.13400    771515.38470089 15623.18727676
0.13500    731296.84599034 22377.68454237
0.13600    693468.33401508 21376.16240392
0.13700    657933.06209289 16343.05803302
0.13800    624595.27910681 13022.81218348
0.13900    593367.32970292 23675.35757163
0.14000    564158.12108443 14318.33378838
0.14100    536879.35533934 13722.63696967
0.14200    511440.48403065 17552.63823981
0.14300    487759.86310745 12642.73624807
0.14400    465752.29766231 11143.12424719
0.14500    445350.39227347 10728.49145595
0.14600    426471.50929183 15045.91555760
0.14700    409038.10872505 9988.71108630
0.14800    392973.85276475 14052.74563786
0.14900    378208.03689468 11062.58560111
0.15000    364680.15077383 9912.00696571
0.15100    352317.94107907 10442.70426632
0.15200    341069.63056106 9393.05806888
0.15300    330854.87790334 11464.12206033
0.15400    321617.29741894 11964.16402859
0.15500    313306.31042146 8064.50481084
0.15600    305859.05868891 8643.57740648
0.15700    299235.99892423 9928.65091291
0.15800    293359.98163452 6996.63589222
0.15900    288204.78189179 7608.60660107
0.16000    283708.25886076 8221.86572988
0.16100    279840.42621168 8840.15948132
0.16200    276537.38436391 8789.74117694
0.16300    273765.81481181 7408.10329853
0.16400    271489.04991023 6719.35430250
0.16500    269659.58626951 9400.33362116
0.16600    268249.33639905 6719.64619405
0.16700    267209.15107804 14140.70894270
0.16800    266511.38669651 10134.09595763
0.16900    266136.23551753 8822.41662398
0.17000    266035.46049290 8188.57186063
0.17100    266182.98185214 8927.77763290
0.17200    266557.11209865 8992.30460129
0.17300    267126.49331474 10458.00270715
0.17400    267870.21499874 7031.59347579
0.17500    268759.75233707 9223.83513583
0.17600    269764.52389127 9310.92298185
0.17700    270878.50270040 8678.94763643
0.17800    272070.48017662 8035.60201155
0.17900    273331.05368602 10331.91431734
0.18000    274633.07960413 8201.91730980
0.18100    275973.69028499 11301.12315100
0.18200    277306.90219833 7612.07482492
0.18300    278645.43585971 9997.79871094
0.18400    279966.26738398 13207.40928777
0.18500    281258.49124923 12555.37964251
0.18600    282504.79619616 8716.68589844
0.18700    283700.45433855 10400.45914742
0.18800    284828.02029031 8074.87475674
0.18900    285892.39769821 8962.72709131
0.19000    286859.15211608 9862.21811573
0.19100    287757.32328671 12431.11695336
0.19200    288540.35877644 12529.86567192
0.19300    289234.64338572 9258.40137226
0.19400    289807.60298847 8476.87278798
0.19500    290272.32377204 8534.00672217
0.19600    290617.34468740 11164.06582374
0.19700    290842.06060528 9501.81056901
0.19800    290937.23401346 8684.47684572
0.19900    290912.41765701 10472.84753060
0.20000    290749.71367463 9642.71470974
0.20100    290460.82402319 9681.05972224
0.20200    290038.14076743 10597.99416454
0.20300    289485.98945304 10629.92603514
0.20400    288796.99284688 9768.55874476
0.20500    287980.04600499 8898.58384216
0.20600    287024.07690852 13368.14701390
0.20700    285945.63671119 15166.55728807
0.20800    284731.96821133 11604.25191299
0.20900    283407.28737439 8927.32997430
0.21000    281943.13495049 12492.90090022
0.21100    280365.30325134 9807.17877135
0.21200    278666.48507290 10684.07354278
0.21300    276852.34868536 12441.74513811
0.21400    274927.46696064 11526.33459725
0.21500    272903.43220987 9726.27878379
0.21600    270765.79228443 12338.79773776
0.21700    268531.79662148 11415.28721409
0.21800    266206.23718651 10493.85036605
0.21900    263783.61649599 9575.34573154
0.22000    261278.57579564 8661.38519716
0.22100    258697.50657251 10337.55285143
0.22200    256040.66117191 10277.47262541
0.22300    253309.21336687 8511.18997158
0.22400    250511.48936695 11836.66843230
0.22500    247663.64794257 10074.95767472
0.22600    244751.40057809 10000.54270053
0.22700    241798.71989927 9923.41993394
0.22800    238798.74730661 9023.01109368
0.22900    235756.77393138 8946.96999381
0.23000    232689.46242458 10481.49733060
0.23100    229591.32325427 10386.71195524
0.23200    226469.76447328 8706.63050694
0.23300    223332.25819091 12542.34021318
0.23400    220185.02210463 8537.67463590
0.23500    217024.11359828 7682.65398474
0.23600    213869.24184271 9123.66228853
0.23700    210713.86309528 12788.22495611
0.23800    207570.19414128 10417.94853671
0.23900    204432.69092204 11039.36583195
0.24000    201315.99684132 8005.33099305
0.24100    198225.76579619 8634.71476651
0.24200    195159.74896164 8536.28782337
0.24300    192120.08879469 9844.23381550
0.24400    189116.45165437 10425.04489059
0.24500    186147.17304660 7555.71411138
0.24600    183222.26031760 8146.06207907
0.24700    180341.56898678 7379.57735204
0.24800    177508.86318479 7292.95198895
0.24900    174723.84109575 7862.57322127
0.25000    171994.48171378 7123.15179716
0.25100    169315.27315497 10240.18820487
0.25200    166703.10100269 7591.65957882
0.25300    164144.80325717 9380.87594996
0.25400    161652.42122230 6801.52594472
0.25500    159220.89337770 6725.49085447
0.25600    156855.28657425 9070.15737529
0.25700    154553.91687706 7177.48423936
0.25800    152323.83223311 7693.11551093
0.25900    150160.17848645 6441.87196186
0.26000    148067.67476437 6956.21968957
0.26100    146039.98902058 5739.37184007
0.26200    144089.16550767 6821.18141789
0.26300    142197.80936208 6194.13686890
0.26400    140383.00528763 6696.26966908
0.26500    138637.44600111 8850.61497151
0.26600    136959.36545462 5485.22284602
0.26700    135351.21650538 5441.11916099
0.26800    133813.01602161 5399.35545197
0.26900    132336.10544167 5359.61252401
0.27000    130930.05592530 6386.76843027
0.27100    129583.14425328 6344.39104288
0.27200    128308.91339572 7881.37537831
0.27300    127089.27188935 5223.36932184
0.27400    125923.46022515 7272.08017215
0.27500    124827.12514579 5167.84322561
0.27600    123779.16122265 7200.23414908
0.27700    122791.75870739 5120.41658043
0.27800    121855.73221296 5609.62889791
0.27900    120968.38906767 6096.80709756
0.28000    120133.21796901 6076.33845246
0.28100    119340.87143429 6057.74292071
0.28200    118598.42515040 6544.85440169
0.28300    117894.60695179 7533.46574078
0.28400    117231.15794081 6515.12191093
0.28500    116608.26847657 6002.99394530
0.28600    116017.10493244 5493.99026412
0.28700    115460.18523619 4987.88023829
0.28800    114935.87565404 5480.71748998
0.28900    114439.63406174 7964.99890771
0.29000    113969.41078036 5472.24151764
0.29100    113525.46118295 4972.41543518
0.29200    113104.09263484 5468.01761726
0.29300    112701.86771196 6461.19838177
0.29400    112314.49372879 4969.91658276
0.29500    111949.16836366 5964.65197276
0.29600    111593.44901931 6462.93490589
0.29700    111249.26595031 4972.84242338
0.29800    110917.59013080 5472.11956815
0.29900    110595.53292474 4976.79921721
0.30000    110275.65731941 5476.84078004
0.30100    109963.54052079 6475.75320783
0.30200    109653.98241511 6478.90585771
0.30300    109347.53739974 8476.62150052
0.30400    109041.00782982 7482.93951658
0.30500    108731.11829172 5489.83442245
0.30600    108418.70797994 6490.48626050
0.30700    108107.54394952 4994.56876693
0.30800    107787.25317410 6494.72124749
0.30900    107465.07692366 5496.83894489
0.31000    107132.19059999 8995.89047059
0.31100    106796.84597881 6497.52041698
0.31200    106448.99379361 4997.78049523
0.31300    106095.24586099 4997.08631665
0.31400    105731.14840353 5994.95639832
0.31500    105356.42188174 5493.28409700
0.31600    104972.87783778 4991.46057752
0.31700    104580.93585564 5487.36196416
0.31800    104170.55229175 4984.56116317
0.31900    103759.97225114 5478.52679426
0.32000    103331.62728067 7463.12713372
0.32100    102894.00123955 8448.62684182
0.32200    102446.85244693 7445.32535412
0.32300    101986.16707987 8921.75031860
0.32400    101515.53844016 4948.88273329
0.32500    101034.11006480 5928.68185934
0.32600    100540.45339221 4931.50947241
0.32700    100040.44221587 7875.18398414
0.32800    99532.14018740  5403.10248593
0.32900    99011.50355195  5391.17662370
0.33000    98484.37542360  6356.67431273
0.33100    97947.63726393  6828.90959342
0.33200    97407.06253083  6811.67620535
0.33300    96857.38344210  5823.06616829
0.33400    96302.67172347  6290.97232825
0.33500    95741.93175468  6273.01166563
0.33600    95174.79833192  6254.41216857
0.33700    94605.44066368  4796.49606880
0.33800    94032.65181536  6694.18479975
0.33900    93457.87474827  5242.98702167
0.34000    92879.65849058  6651.11265950
0.34100    92301.66621409  6155.59841134
0.34200    91725.65294540  6606.99909456
0.34300    91146.82265678  4703.17627183
0.34400    90572.65641337  5155.84871051
0.34500    89999.85600893  4670.99274808
0.34600    89432.22490446  6516.92653743
0.34700    88865.20815558  6958.14612813
0.34800    88302.44824970  6009.42340025
0.34900    87748.06708676  4606.77374024
0.35000    87197.06838374  5050.01845462
0.35100    86655.31392784  4575.40079209
0.35200    86118.28677612  6383.94890108
0.35300    85589.99445155  4999.31181270
0.35400    85070.73032099  4983.01826457
0.35500    84561.91417973  4967.16707418
0.35600    84062.22300801  4951.68548082
0.35700    83573.15560355  6731.81800272
0.35800    83096.41349839  5369.69049460
0.35900    82630.81521352  5354.47707945
0.36000    82178.86747719  5339.98306160
0.36100    81738.12030246  5326.05617118
0.36200    81313.24819981  4427.50657420
0.36300    80898.40380827  5300.46366859
0.36400    80497.28810258  5288.67207885
0.36500    80110.39106879  4837.86674580
0.36600    79743.55791108  6584.82460642
0.36700    79385.15167471  5258.47269602
0.36800    79047.22514020  6125.36976626
0.36900    78724.78531360  5243.07095025
0.37000    78411.10154785  5236.29360941
0.37100    78115.75700722  4794.74539223
0.37200    77839.82326898  5661.67981366
0.37300    77575.77182131  5657.60130693
0.37400    77331.21894930  6089.83378074
0.37500    77104.20173986  6088.14805778
0.37600    76888.77506328  6087.28461012
0.37700    76689.41611453  4783.11910965
0.37800    76508.90158986  7394.20314443
0.37900    76343.55968206  4786.74141882
0.38000    76193.03103782  5225.31831611
0.38100    76057.94196961  5229.74433758
0.38200    75938.28160328  5671.45083022
0.38300    75832.72037352  4804.76139049
0.38400    75743.96313936  6123.89970993
0.38500    75666.74257291  7009.76736404
0.38600    75609.13701927  5705.84379547
0.38700    75559.97599401  6156.62713566
0.38800    75526.32899472  6169.74610787
0.38900    75506.04953399  4858.81451770
0.39000    75499.47163237  4428.04422102
0.39100    75505.55211503  5771.64467711
0.39200    75524.80343062  5342.62484780
0.39300    75552.46090447  6251.21091140
0.39400    75595.66599074  4926.94776437
0.39500    75645.77361823  5392.03099897
0.39600    75707.17608304  4508.36254934
0.39700    75778.73450639  5428.78879724
0.39800    75861.16787705  5448.34933506
0.39900    75951.74991582  5924.23677412
0.40000    76050.86196524  5489.35147673
0.40100    76155.22524732  5969.80838998
0.40200    76270.53197036  5071.60926366
0.40300    76389.12966454  5555.01777240
0.40400    76516.66691130  5578.06528212
0.40500    76649.38956339  4667.94804558
0.40600    76790.74508020  6563.30529298
0.40700    76932.41506665  7062.39603774
0.40800    77078.58708451  6620.28015837
0.40900    77228.62583911  9024.16535688
0.41000    77384.53203563  5724.90795125
0.41100    77541.45342153  5750.47445821
0.41200    77699.32235447  5776.16789752
0.41300    77860.47792310  5802.16308975
0.41400    78023.01641469  6314.01290254
0.41500    78186.55262694  5366.72522661
0.41600    78346.32138067  4900.56263457
0.41700    78510.51990149  6399.39278040
0.41800    78674.41805182  6428.09363151
0.41900    78831.07924078  7449.53734125
0.42000    78992.41556982  5487.20840757
0.42100    79150.71524025  5511.26456333
0.42200    79307.25788276  5032.04575111
0.42300    79458.14943187  7580.30781500
0.42400    79607.36637807  5582.46683179
0.42500    79754.27599479  6115.55817307
0.42600    79895.05273661  8187.64539243
0.42700    80035.05340194  6165.90080627
0.42800    80168.69613071  5158.85584047
0.42900    80300.40377057  5697.31391750
0.43000    80425.25811604  7279.29045703
0.43100    80543.59391841  6784.99267321
0.43200    80659.39054265  6810.47596320
0.43300    80768.56668111  6835.44412214
0.43400    80870.78961201  7387.54698114
0.43500    80969.23090989  6354.46554294
0.43600    81065.39120211  5313.83664511
0.43700    81150.99136869  5864.78242414
0.43800    81230.18652323  5883.90883964
0.43900    81305.39882380  6439.38789200
0.44000    81374.75339909  5921.23421169
0.44100    81437.53007776  7019.10105004
0.44200    81496.14620938  5415.41917225
0.44300    81545.98231578  6517.15521553
0.44400    81593.58072116  7080.28330262
0.44500    81629.99147439  8191.57003266
0.44600    81663.98640056  6570.68465718
0.44700    81692.55480628  8234.60991472
0.44800    81714.69308179  5503.48483988
0.44900    81733.27880744  6620.39589716
0.45000    81748.94031982  8295.47411209
0.45100    81753.09005504  6651.43172211
0.45200    81757.08831561  8888.63106293
0.45300    81755.67549064  8351.34264716
0.45400    81750.20986211  8369.17813127
0.45500    81741.29923026  9504.87872496
0.45600    81727.43158544  8963.86512112
0.45700    81711.09668953  7297.61839120
0.45800    81691.19074085  6186.88262398
0.45900    81668.08633410  6762.11786895
0.46000    81646.84294224  7339.64329415
0.46100    81615.75846707  7918.36126176
0.46200    81588.65062297  6232.96525975
0.46300    81557.41929080  6811.67598201
0.46400    81526.82397578  7961.09473855
0.46500    81494.81855260  5696.48808682
0.46600    81462.37647273  6847.72769085
0.46700    81427.56136483  6859.45809448
0.46800    81397.37213782  9162.08864208
0.46900    81363.78371856  7456.99113124
0.47000    81331.63695470  6320.68846551
0.47100    81302.24867830  6907.43937510
0.47200    81274.20917402  8649.60812131
