# SAXS profile: number of points = 501, q_min = 0, q_max = 0.5, delta_q = 0.001
#    q    intensity    error
0.00000    35931415.37678242 7545.59722912
0.00100    35924274.06447220 11855.01072282
0.00200    35902857.35576844 17771.91495385
0.00300    35867191.22165275 25824.37859953
0.00400    35817311.72809148 32235.58178017
0.00500    35753281.89241076 38613.54597217
0.00600    35675168.83045030 37458.92879700
0.00700    35583065.35836482 42699.68020465
0.00800    35477067.99453092 57472.85257764
0.00900    35357311.05301332 68946.75950069
0.01000    35223909.68508005 69743.34418794
0.01100    35077032.85656500 69452.52807992
0.01200    34916828.52976561 102131.72792741
0.01300    34743496.31884527 109442.01823128
0.01400    34557206.13535047 101079.83242687
0.01500    34358190.28742194 115443.52450631
0.01600    34146636.98626375 95781.32102823
0.01700    33922821.80295920 100750.78527434
0.01800    33686954.68435287 115209.39020463
0.01900    33439317.22256923 100317.95619431
0.02000    33180160.35482049 188131.51772209
0.02100    32909802.13294792 152043.29274763
0.02200    32628481.12553024 112568.26499732
0.02300    32336548.13067555 151335.05214009
0.02400    32034285.09458613 156167.14695695
0.02500    31722041.24214518 173202.35309237
0.02600    31400125.86782134 178038.72181373
0.02700    31068899.03237796 169636.19648631
0.02800    30728666.60974193 147036.67647066
0.02900    30379835.73605704 164051.12050698
0.03000    30022726.53880215 153566.25330469
0.03100    29657723.34192026 199299.91002812
0.03200    29285181.20338297 159457.81899675
0.03300    28905517.73669100 162159.96197849
0.03400    28519050.21385098 149725.02053109
0.03500    28126214.49979961 151881.56531252
0.03600    27727357.26172042 169275.52390566
0.03700    27322905.01959383 171314.62239573
0.03800    26913215.61683106 188930.78237379
0.03900    26498713.80197752 190790.74820976
0.04000    26079733.24647641 256624.58703705
0.04100    25656732.89597023 193964.90968702
0.04200    25230064.67408442 162733.92469754
0.04300    24800120.63854003 163680.80381209
0.04400    24367289.41466808 197375.05342529
0.04500    23931980.26305282 214669.87293420
0.04600    23494526.53751457 248454.62968409
0.04700    23055348.10162723 215798.06826755
0.04800    22614796.03194678 199462.51028238
0.04900    22173271.72090185 166299.54564759
0.05000    21731099.60944259 249364.37963029
0.05100    21288672.20246649 298892.97164627
0.05200    20846298.81962430 165728.08333915
0.05300    20404381.93772197 165275.50140034
0.05400    19963226.89178503 181166.29249143
0.05500    19523180.42023683 229592.61245232
0.05600    19084551.38302231 179490.21413308
0.05700    18647702.83298779 194682.02666386
0.05800    18212883.52754056 241776.04011721
0.05900    17780428.75147331 192028.63948477
0.06000    17350620.37198865 190509.82058483
0.06100    16923760.43076777 236086.46904185
0.06200    16500112.60038137 249481.71417942
0.06300    16079947.44918656 154367.50272969
0.06400    15663476.25713897 152718.90064927
0.06500    15251008.46645880 196280.48814489
0.06600    14842742.78575081 164086.52917384
0.06700    14438906.87143332 176732.22837723
0.06800    14039718.82119387 188904.42558161
0.06900    13645397.90102923 257898.03240396
0.07000    13256108.34380132 155295.31651987
0.07100    12872043.96208972 152919.88943205
0.07200    12493377.41320491 136802.48908335
0.07300    12120298.53626853 174895.91607321
0.07400    11752919.51702720 211552.56122072
0.07500    11391394.67778623 207779.04866194
0.07600    11035847.60534978 165703.25956260
0.07700    10686425.83241081 212553.01977294
0.07800    10343195.08667099 134823.55427747
0.07900    10006278.70083547 132082.88504621
0.08000    9675772.16221577 129316.70101440
0.08100    9351757.33789289 172539.93097939
0.08200    9034272.34060824 134972.03510228
0.08300    8723401.26937002 208838.23618992
0.08400    8419189.91123480 128813.61168823
0.08500    8121682.80808526 104769.71314273
0.08600    7830909.02773732 143070.71465415
0.08700    7546889.71072859 109580.84374544
0.08800    7269625.54189330 97049.50554209
0.08900    6999142.32585365 113386.11100454
0.09000    6735436.80732742 137908.07510833
0.09100    6478483.48587397 89403.07630532
0.09200    6228262.49176341 104261.11901101
0.09300    5984777.44159216 101262.43907028
0.09400    5747949.94305670 98289.94864565
0.09500    5517771.26848188 119183.86500117
0.09600    5294192.21360835 107842.70046065
0.09700    5077164.82004610 97024.62427248
0.09800    4866623.27982304 72269.35910331
0.09900    4662511.94503498 111900.29194267
0.10000    4464729.02724195 74404.71273803
0.10100    4273230.75532019 98070.65044704
0.10200    4087938.97713587 113685.58830150
0.10300    3908744.87946010 85366.99218314
0.10400    3735580.58577013 64718.93669318
0.10500    3568373.01927364 68084.56041108
0.10600    3406959.96334660 87490.73597549
0.10700    3251312.44261418 84274.02247830
0.10800    3101288.55382374 60847.28428960
0.10900    2956795.32398212 63423.26268447
0.11000    2817721.66499199 60989.58830950
0.11100    2683965.48762846 45090.62231473
0.11200    2555398.40647355 51976.80603459
0.11300    2431919.14378250 45744.40124823
0.11400    2313418.51803999 51878.41270971
0.11500    2199768.00878884 42103.56167079
0.11600    2090850.46111469 44033.31278467
0.11700    1986562.90454237 38678.38157300
0.11800    1886747.47154504 37046.28834860
0.11900    1791320.98527654 35468.15717908
0.12000    1700142.86595561 37029.11336477
0.12100    1613128.97287017 32472.28775359
0.12200    1530119.87130696 39522.99813784
0.12300    1451014.09486388 43182.18149765
0.12400    1375684.65180722 33532.31496776
0.12500    1304015.43446597 32039.66073455
0.12600    1235914.60320973 32961.84402088
0.12700    1171232.12363897 24736.42361699
0.12800    1109863.67943837 25771.03585113
0.12900    1051708.07350563 20508.30839996
0.13000    996641.96037901 25459.22007790
0.13100    944547.10586448 20572.23693545
0.13200    895327.53018635 23220.32059000
0.13300    848879.62666509 22181.22569045
0.13400    805088.73974064 16303.04774837
0.13500    763851.95879691 23373.87104122
0.13600    725069.65622823 22350.27320707
0.13700    688641.30601875 17105.85084810
0.13800    654468.20469854 13645.66271144
0.13900    622459.37531915 24836.13024646
0.14000    592520.98650327 15038.18334666
0.14100    564561.96362363 14430.20447079
0.14200    538487.87674910 18480.90480169
0.14300    514215.29798179 13328.46115236
0.14400    491655.71640966 11762.86356995
0.14500    470739.66997673 11340.11918468
0.14600    451381.85786038 15924.75269655
0.14700    433502.00560081 10586.11947619
0.14800    417021.61750729 14912.69374562
0.14900    401867.49548297 11754.62479747
0.15000    387977.65371082 10545.23312541
0.15100    375277.21361251 11123.21713632
0.15200    363712.84644369 10016.65226371
0.15300    353201.70486055 12238.43965094
0.15400    343686.16124317 12785.12580159
0.15500    335114.20962264 8625.84016277
0.15600    327420.45273766 9252.90243106
0.15700    320564.81390952 10636.34102752
0.15800    314467.91795008 7500.06019710
0.15900    309102.89679825 8160.31686065
0.16000    304405.71723281 8821.67810181
0.16100    300345.78251211 9487.92371743
0.16200    296857.95820211 9435.63064687
0.16300    293907.80549847 7953.14559224
0.16400    291457.52377214 7213.57405391
0.16500    289458.89902090 10090.53769626
0.16600    287883.05679021 7211.47091307
0.16700    286680.02851060 15171.10782508
0.16800    285821.60297290 10868.36696621
0.16900    285287.56764710 9457.28331406
0.17000    285028.55202405 8773.17924557
0.17100    285018.38493239 9559.51708205
0.17200    285234.73252559 9622.39415615
0.17300    285646.10167206 11183.04540857
0.17400    286231.43140223 7513.57542915
0.17500    286961.17817578 9848.50810011
0.17600    287804.57848288 9933.57549549
0.17700    288755.85722761 9251.73810254
0.17800    289783.34692143 8558.75155557
0.17900    290877.82712365 10995.18238462
0.18000    292011.72834584 8720.93067898
0.18100    293182.34949566 12005.81777896
0.18200    294342.85634452 8079.71178833
0.18300    295506.97962689 10602.79092988
0.18400    296651.03881152 13994.51341704
0.18500    297764.37532032 13292.20234225
0.18600    298829.78527343 9220.39346021
0.18700    299842.54238343 10992.22812310
0.18800    300784.88531494 8527.25190156
0.18900    301662.39643746 9457.11657514
0.19000    302439.89185393 10397.88397323
0.19100    303147.63724624 13095.97854782
0.19200    303738.28783630 13189.83577253
0.19300    304238.74205058 9738.68259322
0.19400    304616.12410587 8910.02205113
0.19500    304883.87441707 8963.58633144
0.19600    305030.80711968 11717.75900924
0.19700    305056.14186940 9966.18462585
0.19800    304950.93953143 9102.78597520
0.19900    304725.00408330 10970.10066545
0.20000    304360.13626092 10094.10439615
0.20100    303868.36145417 10127.93296594
0.20200    303242.16744609 11080.46932218
0.20300    302486.08548433 11107.28958397
0.20400    301592.54786818 10201.36841382
0.20500    300570.74116478 9287.63634099
0.20600    299409.30580741 13944.98907713
0.20700    298125.45966288 15812.57512797
0.20800    296705.99961470 12092.25358590
0.20900    295175.86244738 9298.04010662
0.21000    293505.74336276 13005.24010319
0.21100    291721.91992950 10204.43324153
0.21200    289817.29586294 11111.59564868
0.21300    287797.14899183 12933.60448714
0.21400    285666.36173136 11976.56278180
0.21500    283436.57375507 10101.67996621
0.21600    281093.01208178 12809.40916618
0.21700    278653.17663692 11845.54709889
0.21800    276122.05728328 10884.73201274
0.21900    273493.53606108 9927.81582842
0.22000    270782.74245771 8976.44833690
0.22100    267996.14043347 10709.12627809
0.22200    265133.54716015 10642.46108623
0.22300    262196.15221383 8809.79113096
0.22400    259192.24704343 12246.83425191
0.22500    256138.86190015 10419.72939482
0.22600    253020.16112186 10338.40427232
0.22700    249861.33326904 10254.30960228
0.22800    246654.85146192 9319.85400322
0.22900    243406.11439871 9237.26247827
0.23000    240131.91696632 10816.74271129
0.23100    236826.68268903 10714.03963155
0.23200    233497.41020146 8976.80835974
0.23300    230151.95176224 12925.33422226
0.23400    226796.50854509 8794.03503475
0.23500    223426.94723042 7909.31430604
0.23600    220063.19750475 9387.89644957
0.23700    216698.46800571 13151.43064530
0.23800    213344.98555913 10707.78533168
0.23900    209997.42085957 11339.86126279
0.24000    206670.36009535 8218.24725792
0.24100    203369.46303716 8858.77422893
0.24200    200092.42895734 8752.04325658
0.24300    196841.48663557 10086.15825231
0.24400    193626.39590550 10673.65557919
0.24500    190445.23060179 7730.17227580
0.24600    187308.60535781 8327.74098815
0.24700    184216.12753233 7538.12429522
0.24800    181171.61716765 7443.43624346
0.24900    178175.12480465 8017.88099551
0.25000    175234.37575693 7257.33201530
0.25100    172343.95095441 10423.36264684
0.25200    169521.34871892 7720.00258589
0.25300    166752.90803702 9529.92914518
0.25400    164051.28229675 6902.45802920
0.25500    161411.13976046 6818.00686605
0.25600    158837.84855371 9184.79902718
0.25700    156330.07482847 7259.96901853
0.25800    153894.69500876 7772.45193916
0.25900    151527.37822438 6500.52483340
0.26000    149232.82421774 7010.95841348
0.26100    147004.67399216 5777.28396125
0.26200    144855.56403394 6857.46272584
0.26300    142767.85643695 6218.96812066
0.26400    140759.28312436 6714.21812274
0.26500    138822.51581060 8862.42982871
0.26600    136955.85920819 5485.08242084
0.26700    135162.10669395 5433.51694621
0.26800    133441.61290875 5384.36933566
0.26900    131785.55878638 5337.31538342
0.27000    130204.32594730 6351.36732027
0.27100    128685.91879736 6300.46288247
0.27200    127244.18420912 7815.97438492
0.27300    125861.21111550 5172.89602165
0.27400    124536.44762531 7191.98019072
0.27500    123286.09180606 5104.04444232
0.27600    122088.69615567 7101.89979148
0.27700    120957.09852763 5043.91124731
0.27800    119882.14810027 5518.77494898
0.27900    118861.21109248 5990.60532258
0.28000    117898.29477736 5963.29603207
0.28100    116983.99058492 5938.10764314
0.28200    116125.67128342 6408.39547308
0.28300    115312.24815430 7368.45300581
0.28400    114545.38061250 6365.85982884
0.28500    113825.72305879 5859.74850042
0.28600    113144.37442108 5357.95210431
0.28700    112504.16411465 4860.18011980
0.28800    111903.46024101 5336.11675417
0.28900    111338.10507207 7749.13247981
0.29000    110805.72292779 5320.33703821
0.29100    110306.96793030 4831.44542404
0.29200    109838.45400405 5310.14031018
0.29300    109396.19826678 6271.68434351
0.29400    108976.26969747 4822.20016238
0.29500    108586.23443599 5785.47484462
0.29600    108213.11880027 6267.16307199
0.29700    107859.39660362 4821.31525641
0.29800    107525.73916505 5304.78259283
0.29900    107209.53340480 4824.42923160
0.30000    106902.94149298 5309.33484059
0.30100    106611.58682059 6278.35664508
0.30200    106330.59879423 6282.54372718
0.30300    106060.21718375 8221.78842531
0.30400    105797.09275317 7260.32583390
0.30500    105538.00699753 5328.61422557
0.30600    105283.46617059 6302.79500069
0.30700    105037.60152426 4852.73742017
0.30800    104789.41386356 6314.08643128
0.30900    104546.53889034 5347.55571742
0.31000    104299.34326696 8758.01626877
0.31100    104056.52028288 6330.79899374
0.31200    103807.50487512 4873.76258464
0.31300    103558.84715915 4877.62193213
0.31400    103305.82097266 5857.44032648
0.31500    103047.89435886 5372.91746626
0.31600    102786.76948526 4887.51112044
0.31700    102522.78345661 5379.37070267
0.31800    102245.28681484 4892.43720574
0.31900    101972.57151560 5384.15203096
0.32000    101686.71724138 7344.32350051
0.32100    101395.79992348 8325.60952593
0.32200    101099.62350613 7347.41548621
0.32300    100793.48781794 8817.41473183
0.32400    100481.08935703 4898.45333810
0.32500    100160.84214745 5877.43849552
0.32600    99831.39277677  4896.73004757
0.32700    99498.24424614  7832.50215795
0.32800    99159.15908548  5382.85520585
0.32900    98809.41921157  5380.17313084
0.33000    98455.03888641  6354.78078585
0.33100    98092.26087149  6838.99275182
0.33200    97726.80248169  6834.03562117
0.33300    97352.95564391  5852.85997048
0.33400    96974.32706691  6334.84821564
0.33500    96589.85972427  6328.56790883
0.33600    96198.62244901  6321.69277361
0.33700    95804.70556683  4857.29880226
0.33800    95406.45369869  6791.98576046
0.33900    95004.86198435  5329.77300973
0.34000    94598.56365435  6774.20346410
0.34100    94190.53927920  6281.56736202
0.34200    93782.57405965  6755.15912943
0.34300    93369.24447809  4817.85324324
0.34400    92958.01073788  5291.63501186
0.34500    92545.32835620  4803.10276916
0.34600    92134.64445244  6713.85185922
0.34700    91720.77945438  7181.73737141
0.34800    91307.73164276  6213.94797125
0.34900    90899.18877545  4772.20763673
0.35000    90489.92052923  5240.72399566
0.35100    90085.48712090  4756.51394526
0.35200    89681.01676442  6648.05408762
0.35300    89280.54099726  5214.87664664
0.35400    88884.35956854  5206.40160832
0.35500    88493.44986644  5198.10549136
0.35600    88106.32138641  5189.90310708
0.35700    87724.43401797  7066.20349484
0.35800    87349.23240768  5644.50766554
0.35900    86979.65543848  5636.28193938
0.36000    86618.05423384  5628.44143071
0.36100    86261.58101774  5620.80488535
0.36200    85915.26481986  4678.08639103
0.36300    85572.71509185  5606.72455839
0.36400    85237.96269433  5600.13441428
0.36500    84911.33507744  5127.79576822
0.36600    84598.74637939  6985.74181318
0.36700    84288.41354251  5583.26477753
0.36800    83992.57240484  6508.58474395
0.36900    83706.05470852  5574.82350766
0.37000    83422.11837592  5570.92932904
0.37100    83150.64782970  5103.78700555
0.37200    82892.63957415  6029.19642503
0.37300    82640.55561401  6026.97600643
0.37400    82402.28357669  6489.18013906
0.37500    82175.93464909  6488.61210726
0.37600    81955.57318460  6488.42303639
0.37700    81745.66841534  5098.47758059
0.37800    81549.39422000  7881.34157775
0.37900    81363.23222730  5101.47490232
0.38000    81186.84953365  5567.79440478
0.38100    81020.92671225  5570.99918465
0.38200    80865.70546286  6039.45549860
0.38300    80720.11131817  5114.42649541
0.38400    80587.13779928  6515.47039974
0.38500    80461.51169434  7453.95479649
0.38600    80351.71815312  6063.74269769
0.38700    80246.51060567  6538.48599391
0.38800    80153.33024502  6547.72585792
0.38900    80070.36291963  5152.52809798
0.39000    79998.14076296  4691.89117803
0.39100    79935.73699414  6110.28802531
0.39200    79883.99053986  5650.99375851
0.39300    79838.25066515  6605.81717300
0.39400    79806.17946198  5201.36799286
0.39500    79779.09537539  5686.65418778
0.39600    79761.80301277  4749.81559445
0.39700    79753.09194909  5713.51177793
0.39800    79754.52540524  5727.97028599
0.39900    79763.16106611  6221.52685792
0.40000    79779.78224364  5758.50495518
0.40100    79801.25936770  6255.62101822
0.40200    79833.58696892  5308.53461701
0.40300    79869.45761557  5808.10723299
0.40400    79914.59173042  5825.77401317
0.40500    79965.53030460  4869.90102629
0.40600    80026.05358841  6839.82712428
0.40700    80087.91880732  7352.07129486
0.40800    80155.34818099  6884.54318146
0.40900    80228.27525075  9374.67440724
0.41000    80308.92323425  5941.25442238
0.41100    80392.24596932  5961.88924357
0.41200    80478.67369162  5982.78488571
0.41300    80570.58218020  6004.12006856
0.41400    80666.36103173  6527.92557581
0.41500    80765.66379574  5543.75542562
0.41600    80863.86777409  5058.03516894
0.41700    80969.50102495  6599.82434127
0.41800    81077.86691895  6624.46743051
0.41900    81181.89811724  7671.68973560
0.42000    81294.03775107  5647.09059996
0.42100    81406.53707267  5668.33744496
0.42200    81520.58108574  5172.48111499
0.42300    81632.48390150  7787.73933323
0.42400    81746.17895392  5732.45107078
0.42500    81861.34670595  6277.12836286
0.42600    81974.07883854  8400.70399745
0.42700    82089.73212279  6324.19326242
0.42800    82202.57482566  5289.73594069
0.42900    82317.58511906  5840.43294096
0.43000    82429.24991534  7460.67176338
0.43100    82538.12138758  6953.01167518
0.43200    82648.31171958  6978.41053073
0.43300    82755.39721207  7003.58959794
0.43400    82859.25453334  7569.19326031
0.43500    82962.87111361  6510.92643354
0.43600    83067.87815734  5445.09967125
0.43700    83165.60912579  6010.37885635
0.43800    83260.27820234  6030.95853739
0.43900    83354.24650664  6601.65663618
0.44000    83445.66343178  6071.92398736
0.44100    83533.49519743  7199.75229226
0.44200    83620.13151425  5556.55800245
0.44300    83700.73718433  6689.36323278
0.44400    83781.78160222  7270.16444307
0.44500    83854.14602977  8414.76395287
0.44600    83926.43615991  6752.72137345
0.44700    83995.55433921  8466.75227864
0.44800    84060.26922687  5661.45940074
0.44900    84123.46274998  6814.00080568
0.45000    84185.49097161  8542.72310120
0.45100    84237.29560132  6853.54669493
0.45200    84290.35460353  9164.04778680
0.45300    84339.28950318  8615.25883105
0.45400    84385.21601745  8638.93689921
0.45500    84428.43036750  9817.33834841
0.45600    84467.28780539  9264.37256557
0.45700    84503.99949197  7547.05255231
0.45800    84537.35277824  6402.43671610
0.45900    84567.53301319  7002.19206536
0.46000    84599.57474823  7605.07913243
0.46100    84621.07385456  8209.93697448
0.46200    84646.24640618  6466.55030068
0.46300    84666.46832950  7071.34377003
0.46400    84686.37086555  8269.62450696
0.46500    84703.76020745  5920.79311912
0.46600    84719.26279604  7121.50156816
0.46700    84731.00607894  7137.74029039
0.46800    84745.78832332  9538.98638578
0.46900    84755.05138848  7767.80082792
0.47000    84763.78699817  6587.41801878
0.47100    84773.24001854  7202.33481334
0.47200    84781.62087058  9022.88442881
