# SAXS profile: number of points = 501, q_min = 0, q_max = 0.5, delta_q = 0.001
#    q    intensity    error
0.00000    137843843.47263241 28947.20712925
0.00100    137778700.30621529 45466.97218083
0.00200    137583473.17463303 68103.82137795
0.00300    137258786.64616299 98826.32990574
0.00400    136805650.32267284 123125.08996891
0.00500    136225515.59993362 147123.56267126
0.00600    135520186.62930870 142296.20175395
0.00700    134691891.56182098 161630.27659158
0.00800    133743183.69676495 216663.96673630
0.00900    132677063.54371929 258720.28496995
0.01000    131496752.05789471 260363.58031700
0.01100    130205932.90004158 257807.75836686
0.01200    128808483.18227196 376764.82982695
0.01300    127308685.00510025 401022.37545307
0.01400    125710956.79982185 367704.56494017
0.01500    124020110.95094967 416707.59135070
0.01600    122241006.45685339 342886.03843967
0.01700    120378933.44070292 357525.44835702
0.01800    118439107.27888107 405061.76512057
0.01900    116427085.22315741 349281.27142994
0.02000    114348399.00256920 648355.45167336
0.02100    112208879.43407011 518405.04648910
0.02200    110014103.04834747 379548.67276058
0.02300    107770062.42001390 504363.91508350
0.02400    105482455.32581568 514226.99316084
0.02500    103157237.34665489 563238.54163619
0.02600    100800076.63961697 571536.46068773
0.02700    98416829.15420294 537355.91179345
0.02800    96012990.56147671 459422.18090559
0.02900    93594306.59776258 505409.27883338
0.03000    91166058.25233078 466314.40939494
0.03100    88733629.07247782 596290.01480423
0.03200    86302065.99986935 469914.77101269
0.03300    83876466.25198746 470546.99736609
0.03400    81461390.77910805 427672.32132328
0.03500    79061559.56059647 426932.44134214
0.03600    76681158.88253641 468138.49661231
0.03700    74324419.37811899 466014.13105280
0.03800    71995085.59085131 505405.52423772
0.03900    69696869.19396782 501817.48143574
0.04000    67432948.85359240 663540.24746712
0.04100    65206609.82195997 492961.99311097
0.04200    63020556.43765545 406482.60788077
0.04300    60877375.64529896 401790.69790928
0.04400    58779337.10375118 476112.65265198
0.04500    56728571.96229219 508855.31414567
0.04600    54726687.66492939 578734.74896019
0.04700    52775335.19450331 493977.16039440
0.04800    50875695.15672135 448723.65216055
0.04900    49028878.18604302 367716.60351161
0.05000    47235551.43973112 542027.97801106
0.05100    45496369.73165488 638769.06078888
0.05200    43811528.45204163 348301.66742503
0.05300    42181314.26965427 341668.66151206
0.05400    40605549.24068451 368495.37654357
0.05500    39084018.02411747 459628.07340494
0.05600    37616235.06071281 353780.70725488
0.05700    36201723.27360916 377946.00861844
0.05800    34839573.71815729 462495.36270356
0.05900    33528999.50343585 362113.21154990
0.06000    32268952.85552287 354313.11890673
0.06100    31058379.31300855 433264.41166350
0.06200    29896017.86360264 452027.81122704
0.06300    28780591.98420215 276293.69596654
0.06400    27710610.29916799 270178.46305225
0.06500    26684794.71329510 343433.32402516
0.06600    25701574.32734239 284130.91748284
0.06700    24759419.28747869 303055.30626141
0.06800    23856786.26851285 320993.07426823
0.06900    22992142.87255764 434551.52063657
0.07000    22163835.97743845 259649.35063467
0.07100    21370303.66932511 253879.21948272
0.07200    20609977.25069213 225679.26146743
0.07300    19881374.63374698 286888.24940729
0.07400    19182861.60158515 345291.52501033
0.07500    18512970.94700742 337676.60590116
0.07600    17870230.17515302 268321.51865900
0.07700    17253266.86651206 343167.49406554
0.07800    16660609.32895708 217171.05278746
0.07900    16090974.29792857 212400.87069505
0.08000    15543109.21189702 207733.66436201
0.08100    15015787.57097042 277041.29368269
0.08200    14507787.00247443 216746.34798783
0.08300    14018040.17428923 335591.89752248
0.08400    13545498.34620619 207246.13442481
0.08500    13089182.87772745 168850.46704940
0.08600    12648157.31641710 231081.84502058
0.08700    12221548.54404455 177456.89319250
0.08800    11808526.60616004 157643.83759579
0.08900    11408369.06586117 184815.58754768
0.09000    11020389.46741390 225642.48494497
0.09100    10643910.83659828 146885.97644593
0.09200    10278342.37974912 172059.45952151
0.09300    9923203.89864552 167900.61785509
0.09400    9577913.24185205 163782.32413303
0.09500    9242087.35388899 199629.09622711
0.09600    8915319.84531695 181605.07378596
0.09700    8597254.17872810 164293.53507939
0.09800    8287554.60944265 123070.19173670
0.09900    7985952.42945927 191662.86731948
0.10000    7692122.65537000 128189.23008012
0.10100    7405895.35358036 169965.30635844
0.10200    7127081.60169280 198204.14866587
0.10300    6855450.34711915 149723.04262417
0.10400    6590889.80945319 114187.17132072
0.10500    6333307.92308238 120839.52085783
0.10600    6082443.56789076 156197.15817307
0.10700    5838343.57410634 151329.87256207
0.10800    5600834.27082309 109888.37356508
0.10900    5369860.13595444 115183.50533741
0.11000    5145347.42827222 111371.05032714
0.11100    4927244.19248691 82777.70633041
0.11200    4715459.22054142 95912.44506109
0.11300    4509963.62271133 84832.41973718
0.11400    4310725.06719667 96668.01418344
0.11500    4117654.39645135 78811.90885917
0.11600    3930716.04396197 82780.88378411
0.11700    3749889.86671326 73010.35914332
0.11800    3575037.92209479 70195.87290644
0.11900    3406186.72324479 67442.50029690
0.12000    3243236.50054887 70637.69430934
0.12100    3086195.99127865 62125.12823104
0.12200    2934924.41767947 75809.10128013
0.12300    2789391.65946913 83012.29969688
0.12400    2649500.93603794 64581.58835885
0.12500    2515191.95070659 61798.26914083
0.12600    2386425.42928541 63645.96919826
0.12700    2263050.90162912 47795.63729484
0.12800    2144997.26097517 49806.83874720
0.12900    2032203.52839996 39627.97067155
0.13000    1924542.82068296 49162.44867161
0.13100    1821901.41689815 39681.01473051
0.13200    1724195.86200537 44717.02178908
0.13300    1631326.86607863 42626.57302018
0.13400    1543161.88497657 31249.02964403
0.13500    1459589.16899717 44663.43067711
0.13600    1380488.62877859 42553.56398853
0.13700    1305739.85889074 32434.57962424
0.13800    1235213.52045725 25754.20311599
0.13900    1168801.98308069 46635.20132415
0.14000    1106364.85057459 28079.54123183
0.14100    1047778.88955037 26781.22967999
0.14200    992902.86325578 34076.42787416
0.14300    941611.65848132 24406.57533904
0.14400    893765.12976892 21383.33173837
0.14500    849256.38594550 20458.58730250
0.14600    807947.47226734 28504.38816627
0.14700    769691.75750206 18795.87360492
0.14800    734365.89233809 26260.92554897
0.14900    701825.81645753 20528.40609993
0.15000    671968.52297134 18264.10531611
0.15100    644650.28505934 19107.43535074
0.15200    619776.09877940 17068.63456580
0.15300    597173.23148761 20692.05344748
0.15400    576741.95239278 21454.80164149
0.15500    558363.24240934 14372.27053789
0.15600    541915.01092101 15314.51893140
0.15700    527302.58610684 17495.90063278
0.15800    514370.71284509 12267.74208038
0.15900    503047.86693162 13280.46431384
0.16000    493210.96534706 14293.25445043
0.16100    484775.09317686 15314.04591635
0.16200    477608.76600303 15180.79534403
0.16300    471622.62411718 12762.10881108
0.16400    466742.45752404 11551.87636908
0.16500    462851.31924200 16134.99775053
0.16600    459887.17310202 11520.17423011
0.16700    457730.12110567 24223.07915260
0.16800    456317.62366036 17351.47845896
0.16900    455596.59455688 15103.02782270
0.17000    455460.29937112 14019.06867662
0.17100    455844.09717920 15289.01174136
0.17200    456695.30729654 15406.61691919
0.17300    457943.59922260 17928.49275623
0.17400    459537.52591328 12062.86062490
0.17500    461412.27868660 15835.67015240
0.17600    463499.39609670 15997.68241183
0.17700    465786.03124885 14923.78514607
0.17800    468198.49444420 13828.24318655
0.17900    470724.44475880 17793.38485233
0.18000    473299.89827620 14135.10212969
0.18100    475924.76588492 19489.12008358
0.18200    478498.24021498 13134.77731436
0.18300    481057.04472664 17260.32758016
0.18400    483549.89868206 22811.46754796
0.18500    485961.20511753 21693.30922128
0.18600    488259.52943160 15065.24849235
0.18700    490444.41945050 17979.69326650
0.18800    492479.62070453 13961.79790661
0.18900    494386.37296259 15499.01352467
0.19000    496099.59177297 17055.90477103
0.19100    497689.98110193 21500.20819949
0.19200    499062.02125617 21671.76929707
0.19300    500286.67959549 16014.17737056
0.19400    501296.06694920 14662.91065114
0.19500    502132.61127208 14762.69946901
0.19600    502777.13314462 19314.18448247
0.19700    503238.52398494 16440.80335554
0.19800    503499.88018877 15029.47213391
0.19900    503595.32819603 18129.43267185
0.20000    503488.72741971 16698.20443405
0.20100    503211.53407624 16772.04122345
0.20200    502754.52521138 18370.65121948
0.20300    502132.63614112 18438.31127058
0.20400    501328.47927612 16957.43661302
0.20500    500367.75831812 15461.36446284
0.20600    499227.75503662 23251.53378988
0.20700    497947.13731406 26411.11741157
0.20800    496495.00899446 20234.65504807
0.20900    494923.89158112 15590.10332177
0.21000    493170.82078437 21852.40010197
0.21100    491288.52251119 17185.27332985
0.21200    489257.38433607 18758.12900223
0.21300    487085.65651470 21889.63043861
0.21400    484776.06370813 20324.23743182
0.21500    482349.18891578 17190.92590570
0.21600    479767.94947379 21863.02649117
0.21700    477057.99023506 20279.73612371
0.21800    474226.05595065 18693.99200944
0.21900    471250.05576074 17106.37783293
0.22000    468152.68649418 15519.26229107
0.22100    464937.38739347 18578.89887872
0.22200    461600.09733891 18528.62878330
0.22300    458129.45475012 15393.15040748
0.22400    454537.57227980 21476.90130578
0.22500    450848.38226102 18340.51305765
0.22600    447024.12438212 18265.40658599
0.22700    443105.45609511 18185.04877810
0.22800    439072.23043237 16590.34501145
0.22900    434928.42911244 16505.53466538
0.23000    430701.95965656 19400.97069024
0.23100    426371.27558303 19289.03741961
0.23200    421955.68227141 16222.08697213
0.23300    417458.75607145 23444.48484977
0.23400    412890.01870857 16009.81123261
0.23500    408243.52566680 14451.82149212
0.23600    403552.89382429 17215.56726479
0.23700    398803.00648794 24203.35560852
0.23800    394023.40732259 19776.03574890
0.23900    389196.84195811 21016.63045981
0.24000    384359.80546841 15284.06838739
0.24100    379521.66014674 16531.96429797
0.24200    374681.10510805 16388.55231264
0.24300    369845.06995060 18950.86228070
0.24400    365037.31993238 20122.68321315
0.24500    360255.48001295 14622.77062545
0.24600    355525.39914271 15806.65999362
0.24700    350853.35629042 14356.92001857
0.24800    346248.85178505 14225.63474856
0.24900    341716.28568275 15377.23358318
0.25000    337276.47291544 13968.30578661
0.25100    332922.93294051 20135.17993682
0.25200    328694.48684704 14968.74763918
0.25300    324566.74198825 18548.99018219
0.25400    320569.10484492 13487.94572448
0.25500    316696.79993204 13377.27346203
0.25600    312959.15483652 18096.86398463
0.25700    309359.79722111 14366.66966268
0.25800    305912.14485999 15450.09360716
0.25900    302608.01315026 12981.88437838
0.26000    299457.41950052 14068.51023379
0.26100    296447.90429635 11650.40319010
0.26200    293606.00253700 13899.30881777
0.26300    290890.62852192 12671.19637798
0.26400    288339.26431976 13753.78355886
0.26500    285933.06698547 18253.96786011
0.26600    283665.05757223 11360.78609335
0.26700    281537.35591960 11317.80224353
0.26800    279545.42071798 11279.65825973
0.26900    277669.64383313 11245.62110740
0.27000    275922.29556610 13459.49021465
0.27100    274273.49705062 13428.43105107
0.27200    272748.88119457 16753.60082021
0.27300    271305.79188857 11150.66857432
0.27400    269932.77767886 15588.61864868
0.27500    268657.96409928 11122.44024008
0.27600    267434.45728497 15556.66311650
0.27700    266280.56792300 11103.90020790
0.27800    265173.33394697 12207.25500598
0.27900    264099.30149987 13310.60542556
0.28000    263062.60807220 13305.70734603
0.28100    262038.02174129 13301.05061311
0.28200    261040.25698505 14405.50726353
0.28300    260036.07212869 16616.30579548
0.28400    259032.15729931 14395.71282327
0.28500    258023.49204224 13283.04999904
0.28600    256990.27756554 12169.77517014
0.28700    255936.73449114 11056.46745335
0.28800    254860.65539660 12153.03092783
0.28900    253750.20414211 17661.01504425
0.29000    252605.35817076 12128.84684668
0.29100    251424.16101596 11012.37877377
0.29200    250206.41487287 12096.22969961
0.29300    248943.16691828 14271.91243500
0.29400    247632.40831357 10957.73458658
0.29500    246291.15930882 13122.39358915
0.29600    244900.21981078 14183.39690175
0.29700    243467.37449640 10882.99215517
0.29800    242000.88834179 11939.11439152
0.29900    240500.57523911 10822.52639809
0.30000    238956.74670355 11867.78738685
0.30100    237389.11182736 13979.84545732
0.30200    235794.43405169 13931.91479549
0.30300    234178.18657152 18153.49388243
0.30400    232543.13530868 15958.27341605
0.30500    230886.55611056 11657.46276991
0.30600    229220.57523430 13722.29038605
0.30700    227558.90775163 10513.22203586
0.30800    225886.15345250 13610.77082067
0.30900    224223.88144718 11469.05207902
0.31000    222561.06245530 18688.45329917
0.31100    220919.63052516 13440.75095751
0.31200    219283.99455267 10295.38403169
0.31300    217674.27395254 10252.45878858
0.31400    216083.31911089 12251.92477368
0.31500    214517.45735194 11184.94075590
0.31600    212981.70412942 10127.28051086
0.31700    211481.65173349 11096.44279185
0.31800    209997.19600415 10048.36630457
0.31900    208570.98772748 11012.54867344
0.32000    207164.60372409 14962.46421244
0.32100    205798.67564900 16898.13005766
0.32200    204470.67792109 14859.90722154
0.32300    203174.47438359 17773.70386068
0.32400    201914.50610162 9843.33263855
0.32500    200690.04184349 11776.49221301
0.32600    199492.61194973 9785.11307948
0.32700    198336.86031250 15613.07838312
0.32800    197212.58073298 10705.68545204
0.32900    196111.18647744 10678.25460935
0.33000    195037.74347771 12588.71174889
0.33100    193986.45515723 13524.73629402
0.33200    192962.27868883 13493.85278771
0.33300    191951.57001749 11540.12893594
0.33400    190958.90428728 12474.39101330
0.33500    189977.21292705 12447.30758044
0.33600    189001.22811740 12420.21629391
0.33700    188038.21853805 9533.53813136
0.33800    187075.24321421 13317.88719512
0.33900    186116.25174799 10441.12221753
0.34000    185152.31061482 13258.75759104
0.34100    184187.73406009 12283.48056620
0.34200    183221.62909160 13197.45456849
0.34300    182239.39505285 9403.55323007
0.34400    181253.91320948 10317.87949810
0.34500    180254.89323911 9355.22940218
0.34600    179249.12706675 13061.88450797
0.34700    178222.39055435 13954.81384132
0.34800    177178.54490340 12057.88644448
0.34900    176126.83457536 9246.65925314
0.35000    175053.00437786 10138.19522871
0.35100    173968.97122919 9185.56211595
0.35200    172864.37357111 12814.43661976
0.35300    171744.10158638 10031.57344879
0.35400    170611.45476727 9993.56643632
0.35500    169466.76380438 9954.47817735
0.35600    168309.62190394 9914.27874784
0.35700    167140.79363094 13463.19156465
0.35800    165967.46268212 10724.81794650
0.35900    164783.58527644 10677.97683168
0.36000    163599.79152418 10630.71495677
0.36100    162409.38990742 10582.59634762
0.36200    161227.39788907 8778.83223088
0.36300    160037.50766607 10485.65799895
0.36400    158853.25873919 10436.65959352
0.36500    157675.91971003 9522.04924233
0.36600    156523.81545471 12924.95467340
0.36700    155368.63279728 10291.61872399
0.36800    154242.04187176 11952.21639080
0.36900    153135.29004478 10198.81080009
0.37000    152035.44648742 10152.92759737
0.37100    150966.70270246 9266.33665082
0.37200    149933.62939675 10905.42305076
0.37300    148919.95477154 10860.73281597
0.37400    147948.03510574 11650.90831649
0.37500    147014.76642159 11608.28650655
0.37600    146109.42565253 11567.48377688
0.37700    145243.35258699 9058.82832998
0.37800    144425.67210303 13958.01974162
0.37900    143650.37743606 9006.87909192
0.38000    142919.42153795 9801.41439339
0.38100    142233.13353925 9779.95072547
0.38200    141598.16230776 10575.25925294
0.38300    141010.14884874 8934.40345431
0.38400    140476.98440746 11357.56472740
0.38500    139989.36720430 12968.61559219
0.38600    139565.93109979 10532.34348941
0.38700    139184.03329664 11340.71557028
0.38800    138860.97876061 11343.55389236
0.38900    138591.45098145 8918.36029317
0.39000    138376.83701159 8115.80187522
0.39100    138219.46259516 10565.49622133
0.39200    138115.65583430 9770.30195660
0.39300    138060.65551305 11423.13917834
0.39400    138066.47279179 8998.48279053
0.39500    138119.02703694 9845.12471363
0.39600    138225.36161006 8231.32067386
0.39700    138383.82832843 9913.81793115
0.39800    138594.95931542 9953.89044963
0.39900    138855.78999217 10830.75213254
0.40000    139164.17559506 10044.87067037
0.40100    139514.59258066 10936.54943056
0.40200    139917.84454870 9303.83751408
0.40300    140358.31852384 10206.85740665
0.40400    140846.26641068 10267.69330782
0.40500    141375.55388157 8609.77163932
0.40600    141950.61061915 12132.51926447
0.40700    142553.86642798 13086.44555814
0.40800    143192.94128010 12298.84230928
0.40900    143866.08990458 16810.75340187
0.41000    144576.10832265 10695.74100049
0.41100    145313.39814734 10776.44211722
0.41200    146073.60643919 10859.11241722
0.41300    146862.91746768 10944.22512826
0.41400    147674.85545946 11950.58824431
0.41500    148508.26360938 10193.60769715
0.41600    149350.40341636 9341.86817634
0.41700    150217.77652657 12244.25154486
0.41800    151098.76457943 12345.52514494
0.41900    151976.06257998 14361.73859433
0.42000    152874.75731791 10619.44552029
0.42100    153774.70596266 10707.33328355
0.42200    154677.62734752 9814.29592025
0.42300    155573.85897624 14841.74684962
0.42400    156469.02816035 10972.39111968
0.42500    157361.00536670 12066.44246330
0.42600    158239.33948192 16216.36827854
0.42700    159111.79969140 12257.97362909
0.42800    159966.29239207 10293.83140322
0.42900    160808.92927722 11409.39407288
0.43000    161628.94704125 14629.03668993
0.43100    162423.58943049 13682.56382201
0.43200    163199.72297499 13779.76926239
0.43300    163946.91622336 13874.82817748
0.43400    164661.69414978 15041.84647339
0.43500    165351.16342461 12976.75992051
0.43600    166015.14086466 10882.29299938
0.43700    166636.20513663 12042.79911592
0.43800    167219.42404924 12112.53955501
0.43900    167769.77054398 13287.36645676
0.44000    168282.46898552 12245.07443602
0.44100    168754.19405166 14544.92467460
0.44200    169190.01250588 11242.67686381
0.44300    169579.21306030 13552.77135005
0.44400    169935.43698522 14746.14824322
0.44500    170237.49190914 17083.33312268
0.44600    170504.97845172 13718.83121638
0.44700    170731.43169108 17209.72913005
0.44800    170914.93399218 11511.12134990
0.44900    171060.09624672 13855.86845264
0.45000    171171.91487254 17369.67088488
0.45100    171229.63030164 13931.24338158
0.45200    171259.43016336 18619.32612978
0.45300    171250.68014594 17493.25780596
0.45400    171207.43402233 17527.36188871
0.45500    171132.14378533 19899.24662245
0.45600    171021.10728355 18757.59593585
0.45700    170882.98907818 15261.56047787
0.45800    170717.11880022 12929.26160510
0.45900    170523.62878159 14119.35713229
0.46000    170316.14813457 15310.57086219
0.46100    170070.78967782 16500.26879657
0.46200    169817.54769709 12973.21217118
0.46300    169543.41213468 14160.26645262
0.46400    169258.73858945 16528.11660662
