# SAXS profile: number of points = 500, q_min = 0, q_max = 0.5, delta_q = 0.001
#    q    intensity 
0.00000    80226357.48727989 
0.00100    80179494.16198921 
0.00200    80039085.93644762 
0.00300    79805688.16660500 
0.00400    79480205.97467089 
0.00500    79063927.23469448 
0.00600    78558462.58195543 
0.00700    77965790.09406090 
0.00800    77288183.93654251 
0.00900    76528288.90917301 
0.01000    75688974.58136368 
0.01100    74773472.72896814 
0.01200    73785209.39570570 
0.01300    72727924.38411760 
0.01400    71605504.41139412 
0.01500    70422119.55445576 
0.01600    69182014.80117178 
0.01700    67889716.60146952 
0.01800    66549751.87314177 
0.01900    65166839.01934385 
0.02000    63745709.38593292 
0.02100    62291241.15393686 
0.02200    60808170.25947642 
0.02300    59301427.73401570 
0.02400    57775754.54313970 
0.02500    56235983.93881154 
0.02600    54686732.61187077 
0.02700    53132656.27687550 
0.02800    51578137.61068773 
0.02900    50027615.84815907 
0.03000    48485175.44924927 
0.03100    46954877.16379595 
0.03200    45440462.55955338 
0.03300    43945625.23965454 
0.03400    42473624.79056168 
0.03500    41027700.05628276 
0.03600    39610678.52426434 
0.03700    38225286.28046060 
0.03800    36873858.61668992 
0.03900    35558593.98719883 
0.04000    34281270.84282589 
0.04100    33043606.35407710 
0.04200    31846888.79674125 
0.04300    30692218.21656299 
0.04400    29580420.13259137 
0.04500    28512124.17960989 
0.04600    27487590.56319249 
0.04700    26507001.25433612 
0.04800    25570194.85766387 
0.04900    24676897.21572030 
0.05000    23826513.25115001 
0.05100    23018382.25117671 
0.05200    22251544.41811287 
0.05300    21525029.54873598 
0.05400    20837588.87337422 
0.05500    20187920.31139672 
0.05600    19574555.56727695 
0.05700    18996016.97154784 
0.05800    18450605.90335917 
0.05900    17936672.88046300 
0.06000    17452466.77036142 
0.06100    16996233.69854116 
0.06200    16566151.38169682 
0.06300    16160424.66809022 
0.06400    15777187.36347067 
0.06500    15414731.73824513 
0.06600    15071264.65517008 
0.06700    14745055.39162666 
0.06800    14434450.72002226 
0.06900    14137854.29277587 
0.07000    13853690.25043058 
0.07100    13580503.24488050 
0.07200    13316910.80625302 
0.07300    13061647.17628902 
0.07400    12813460.40695345 
0.07500    12571245.44263959 
0.07600    12333980.99127644 
0.07700    12100777.91861123 
0.07800    11870763.17619437 
0.07900    11643236.81124866 
0.08000    11417581.59804261 
0.08100    11193263.12896812 
0.08200    10969803.44637889 
0.08300    10746870.41402698 
0.08400    10524190.99325460 
0.08500    10301575.73294967 
0.08600    10078902.33002186 
0.08700    9856121.52342385 
0.08800    9633235.04520774 
0.08900    9410331.05549479 
0.09000    9187536.87640172 
0.09100    8965002.36225355 
0.09200    8742939.09282470 
0.09300    8521616.21723086 
0.09400    8301251.13757467 
0.09500    8082167.55080724 
0.09600    7864671.37674350 
0.09700    7649080.14214808 
0.09800    7435707.66362768 
0.09900    7224883.75413609 
0.10000    7016883.39936596 
0.10100    6812047.24961364 
0.10200    6610675.10976434 
0.10300    6413014.98114076 
0.10400    6219348.71900108 
0.10500    6029937.60928383 
0.10600    5844912.98651955 
0.10700    5664549.75253221 
0.10800    5488963.97586575 
0.10900    5318301.07272607 
0.11000    5152668.12343568 
0.11100    4992150.77256292 
0.11200    4836777.86270979 
0.11300    4686589.59837654 
0.11400    4541596.28030893 
0.11500    4401747.49983460 
0.11600    4266997.66824785 
0.11700    4137288.77690256 
0.11800    4012477.43572181 
0.11900    3892494.73466510 
0.12000    3777188.86115354 
0.12100    3666452.42013258 
0.12200    3560082.12110659 
0.12300    3457930.92927445 
0.12400    3359810.40873450 
0.12500    3265542.84380656 
0.12600    3174970.38344978 
0.12700    3087861.47807005 
0.12800    3004041.42080539 
0.12900    2923336.95575967 
0.13000    2845549.69613053 
0.13100    2770491.17550942 
0.13200    2698001.13160287 
0.13300    2627921.01879798 
0.13400    2560074.62741010 
0.13500    2494322.46980146 
0.13600    2430517.44086508 
0.13700    2368535.47170950 
0.13800    2308248.06626697 
0.13900    2249565.19123203 
0.14000    2192377.66343519 
0.14100    2136604.03829131 
0.14200    2082159.77676465 
0.14300    2028986.87236062 
0.14400    1977015.48863126 
0.14500    1926227.08735339 
0.14600    1876567.07666583 
0.14700    1828007.77938372 
0.14800    1780518.60042469 
0.14900    1734085.83391452 
0.15000    1688708.09415624 
0.15100    1644374.87979589 
0.15200    1601098.62126517 
0.15300    1558856.39804912 
0.15400    1517659.30522780 
0.15500    1477520.45338114 
0.15600    1438436.71571149 
0.15700    1400438.44925167 
0.15800    1363493.57501671 
0.15900    1327640.17886292 
0.16000    1292865.00984713 
0.16100    1259192.50509112 
0.16200    1226594.37249336 
0.16300    1195076.98420957 
0.16400    1164645.36211058 
0.16500    1135276.82578629 
0.16600    1106974.29974414 
0.16700    1079701.57961376 
0.16800    1053447.45374262 
0.16900    1028213.54685224 
0.17000    1003947.60823787 
0.17100    980633.11689674 
0.17200    958242.07117999 
0.17300    936741.20793846 
0.17400    916104.66184723 
0.17500    896286.61662743 
0.17600    877240.68604358 
0.17700    858956.62873272 
0.17800    841369.73385388 
0.17900    824464.91337892 
0.18000    808188.38836281 
0.18100    792522.88300192 
0.18200    777385.84216770 
0.18300    762782.84817905 
0.18400    748661.33856968 
0.18500    734996.75591162 
0.18600    721746.33744095 
0.18700    708886.86276116 
0.18800    696382.12788932 
0.18900    684226.74529935 
0.19000    672358.42781274 
0.19100    660811.20017565 
0.19200    649505.38857426 
0.19300    638474.46628010 
0.19400    627664.17915685 
0.19500    617086.30788431 
0.19600    606719.82269917 
0.19700    596562.68190611 
0.19800    586598.65940682 
0.19900    576838.04608991 
0.20000    567255.62487555 
0.20100    557867.64491647 
0.20200    548662.00393191 
0.20300    539648.84823036 
0.20400    530816.22080823 
0.20500    522175.01628293 
0.20600    513712.28536500 
0.20700    505451.83135892 
0.20800    497373.95396931 
0.20900    489510.97348470 
0.21000    481822.38329505 
0.21100    474340.14638535 
0.21200    467052.63474965 
0.21300    459960.87029962 
0.21400    453068.43767867 
0.21500    446382.67039833 
0.21600    439879.32909991 
0.21700    433571.25621339 
0.21800    427453.38555091 
0.21900    421513.26823105 
0.22000    415754.84255511 
0.22100    410179.25309016 
0.22200    404772.45175018 
0.22300    399518.49658431 
0.22400    394419.13235745 
0.22500    389481.73563248 
0.22600    384669.55649459 
0.22700    379999.50286042 
0.22800    375449.59958957 
0.22900    371009.58167086 
0.23000    366686.35096818 
0.23100    362456.48738878 
0.23200    358316.63031340 
0.23300    354264.12916823 
0.23400    350288.26153588 
0.23500    346371.37952499 
0.23600    342528.20906387 
0.23700    338737.25024815 
0.23800    335002.90326015 
0.23900    331307.66280557 
0.24000    327657.97148229 
0.24100    324057.38691199 
0.24200    320487.85509307 
0.24300    316949.90052575 
0.24400    313448.76294227 
0.24500    309974.49968800 
0.24600    306534.46393947 
0.24700    303128.10495524 
0.24800    299753.09023533 
0.24900    296406.57389483 
0.25000    293097.89306853 
0.25100    289819.26309266 
0.25200    286589.89587053 
0.25300    283391.77543343 
0.25400    280239.24999177 
0.25500    277129.06643805 
0.25600    274066.05375481 
0.25700    271049.50866597 
0.25800    268090.13121936 
0.25900    265180.18368775 
0.26000    262328.46447629 
0.26100    259527.81886819 
0.26200    256795.28984527 
0.26300    254109.97329179 
0.26400    251493.96637670 
0.26500    248939.62397448 
0.26600    246444.62467833 
0.26700    244017.12260975 
0.26800    241652.46805722 
0.26900    239343.40462022 
0.27000    237103.13371204 
0.27100    234915.89220454 
0.27200    232800.75201060 
0.27300    230734.68186008 
0.27400    228714.40205388 
0.27500    226764.64928772 
0.27600    224854.83053772 
0.27700    223004.76596408 
0.27800    221200.60327699 
0.27900    219440.00133097 
0.28000    217726.94583993 
0.28100    216051.06991878 
0.28200    214420.84128994 
0.28300    212823.71656146 
0.28400    211261.76504231 
0.28500    209736.63935171 
0.28600    208236.70237941 
0.28700    206768.08639779 
0.28800    205328.39455166 
0.28900    203915.64844780 
0.29000    202524.32716474 
0.29100    201160.80368700 
0.29200    199820.11540422 
0.29300    198498.68905103 
0.29400    197192.96472951 
0.29500    195914.75459303 
0.29600    194649.96435415 
0.29700    193402.11124161 
0.29800    192175.68167094 
0.29900    190966.79473358 
0.30000    189770.85267297 
0.30100    188594.45930976 
0.30200    187431.28991111 
0.30300    186288.36116583 
0.30400    185159.10319727 
0.30500    184041.12061804 
0.30600    182939.31501934 
0.30700    181857.50190169 
0.30800    180784.84591980 
0.30900    179730.67731482 
0.31000    178685.12429080 
0.31100    177658.18071711 
0.31200    176640.63397017 
0.31300    175638.87676467 
0.31400    174649.15380726 
0.31500    173668.79122575 
0.31600    172703.33124200 
0.31700    171753.21332928 
0.31800    170806.15977221 
0.31900    169882.95830212 
0.32000    168963.83037434 
0.32100    168057.94070562 
0.32200    167167.21245749 
0.32300    166283.44339005 
0.32400    165414.26393155 
0.32500    164559.74924382 
0.32600    163714.94199821 
0.32700    162889.29212877 
0.32800    162081.68452044 
0.32900    161284.91709729 
0.33000    160510.73095072 
0.33100    159752.11813545 
0.33200    159019.13742909 
0.33300    158306.04491260 
0.33400    157618.10637730 
0.33500    156953.63866755 
0.33600    156316.53011760 
0.33700    155709.54006584 
0.33800    155134.64280112 
0.33900    154592.15804263 
0.34000    154082.36960764 
0.34100    153610.29167374 
0.34200    153183.07431724 
0.34300    152787.90181520 
0.34400    152440.75015087 
0.34500    152134.07510893 
0.34600    151874.57524818 
0.34700    151656.67343949 
0.34800    151483.48080205 
0.34900    151360.59661439 
0.35000    151282.27040939 
0.35100    151252.91497900 
0.35200    151265.69075216 
0.35300    151325.09453379 
0.35400    151429.50818278 
0.35500    151579.17568895 
0.35600    151770.57372462 
0.35700    152000.62797918 
0.35800    152270.19062117 
0.35900    152574.22686888 
0.36000    152914.08949124 
0.36100    153281.32853513 
0.36200    153680.95017291 
0.36300    154097.38995462 
0.36400    154533.47354007 
0.36500    154985.25944246 
0.36600    155457.48899646 
0.36700    155931.34869018 
0.36800    156416.27191035 
0.36900    156902.31543709 
0.37000    157376.63134157 
0.37100    157846.13302091 
0.37200    158311.52050034 
0.37300    158756.19371842 
0.37400    159189.07538314 
0.37500    159602.74199329 
0.37600    159986.69226602 
0.37700    160343.96262119 
0.37800    160676.95070650 
0.37900    160977.79529709 
0.38000    161244.12133356 
0.38100    161474.85968509 
0.38200    161669.56457263 
0.38300    161826.19678297 
0.38400    161949.59090900 
0.38500    162029.64845989 
0.38600    162080.14626571 
0.38700    162085.22640250 
0.38800    162056.53447207 
0.38900    161993.95137696 
0.39000    161897.90966366 
0.39100    161771.09584453 
0.39200    161614.44573289 
0.39300    161424.17678119 
0.39400    161215.67870820 
0.39500    160978.43987954 
0.39600    160721.19416354 
0.39700    160446.96445782 
0.39800    160158.28189476 
0.39900    159857.24343840 
0.40000    159546.78211588 
0.40100    159224.93971140 
0.40200    158906.09840815 
0.40300    158580.58961063 
0.40400    158258.07231683 
0.40500    157939.17723317 
0.40600    157631.33440374 
0.40700    157324.12764588 
0.40800    157027.13322797 
0.40900    156742.56189607 
0.41000    156474.82212252 
0.41100    156218.04894503 
0.41200    155974.42910977 
0.41300    155749.60876529 
0.41400    155542.52086864 
0.41500    155351.08308137 
0.41600    155171.22682595 
0.41700    155016.17877699 
0.41800    154878.33643730 
0.41900    154746.83306123 
0.42000    154641.18123038 
0.42100    154547.31654835 
0.42200    154469.44022889 
0.42300    154400.96590458 
0.42400    154346.06832407 
0.42500    154305.05538023 
0.42600    154270.23998499 
0.42700    154248.56451461 
0.42800    154232.77405543 
0.42900    154226.73190469 
0.43000    154225.08617918 
0.43100    154225.67167102 
0.43200    154233.87602182 
0.43300    154244.10507814 
0.43400    154255.23965115 
0.43500    154271.04665804 
0.43600    154295.89517760 
0.43700    154312.74983928 
0.43800    154330.29116061 
0.43900    154353.87519820 
0.44000    154377.15744277 
0.44100    154401.48038471 
0.44200    154431.69364061 
0.44300    154458.11346981 
0.44400    154493.19980625 
0.44500    154522.03704522 
0.44600    154559.79103286 
0.44700    154602.79258134 
0.44800    154648.39522604 
0.44900    154701.05804136 
0.45000    154763.02265325 
0.45100    154821.60050384 
0.45200    154892.56118926 
0.45300    154969.74200107 
0.45400    155053.75595782 
0.45500    155145.90639365 
0.45600    155244.93824040 
0.45700    155351.07565516 
0.45800    155464.13996362 
0.45900    155583.91744529 
0.46000    155715.39848605 
0.46100    155841.48343283 
0.46200    155980.08013294 
0.46300    156118.37242414 
0.46400    156261.72818883 
0.46500    156404.35722501 
0.46600    156546.86191533 
0.46700    156684.23946440 
0.46800    156823.00262778 
0.46900    156950.81459103 
0.47000    157072.23922079 
0.47100    157185.36905147 
0.47200    157286.34112099 
0.47300    157374.24139741 
0.47400    157441.95554490 
0.47500    157496.76534307 
0.47600    157532.24712460 
0.47700    157539.50246981 
0.47800    157528.75536754 
0.47900    157493.33189790 
0.48000    157426.45664451 
0.48100    157339.71145675 
0.48200    157214.19297492 
0.48300    157061.09452727 
0.48400    156881.78875858 
0.48500    156667.37033246 
0.48600    156424.68639398 
0.48700    156148.32103807 
0.48800    155838.78045585 
0.48900    155499.70626477 
0.49000    155132.10308307 
0.49100    154735.99862270 
0.49200    154311.13429541 
0.49300    153862.34739292 
0.49400    153387.38821227 
0.49500    152891.34172928 
0.49600    152377.09342330 
0.49700    151842.59330263 
0.49800    151297.49529956 
0.49900    150737.20243204 
