# SAXS profile: number of points = 500, q_min = 0, q_max = 0.5, delta_q = 0.001
#    q    intensity 
0.00000    73593133.73661757 
0.00100    73551071.15372705 
0.00200    73425041.49766827 
0.00300    73215526.88370705 
0.00400    72923313.72212553 
0.00500    72549520.65362120 
0.00600    72095547.97600269 
0.00700    71563113.37887049 
0.00800    70954197.16382742 
0.00900    70271098.64283133 
0.01000    69516315.08919287 
0.01100    68692663.42510271 
0.01200    67803126.48652983 
0.01300    66850972.12784576 
0.01400    65839585.43740368 
0.01500    64772613.66132164 
0.01600    63653769.15861273 
0.01700    62487018.15257263 
0.01800    61276323.33498669 
0.01900    60025831.23859143 
0.02000    58739695.00668454 
0.02100    57422214.01688981 
0.02200    56077560.99892974 
0.02300    54710093.46588874 
0.02400    53324004.34891987 
0.02500    51923584.28734851 
0.02600    50512937.15183640 
0.02700    49096207.95594144 
0.02800    47677316.19953108 
0.02900    46260237.21532893 
0.03000    44848652.72015452 
0.03100    43446216.64215255 
0.03200    42056325.93856192 
0.03300    40682342.77752471 
0.03400    39327247.02551198 
0.03500    37994023.00011086 
0.03600    36685288.25338078 
0.03700    35403586.08068800 
0.03800    34151121.54519415 
0.03900    32929982.53029370 
0.04000    31741894.56155205 
0.04100    30588532.86126709 
0.04200    29471201.62053776 
0.04300    28391033.24744570 
0.04400    27348929.74018431 
0.04500    26345619.80169654 
0.04600    25381495.90481210 
0.04700    24456891.11136687 
0.04800    23571831.38261950 
0.04900    22726230.17708218 
0.05000    21919722.16957557 
0.05100    21151879.94188488 
0.05200    20421996.78119946 
0.05300    19729355.79515076 
0.05400    19072983.18680358 
0.05500    18451848.94735181 
0.05600    17864763.25259042 
0.05700    17310523.92194390 
0.05800    16787713.82757318 
0.05900    16294952.37284672 
0.06000    15830756.54170537 
0.06100    15393621.89340854 
0.06200    14981981.16955304 
0.06300    14594270.85601181 
0.06400    14228848.21917355 
0.06500    13884207.53758019 
0.06600    13558740.66048485 
0.06700    13250894.02211910 
0.06800    12959167.06441832 
0.06900    12682094.87493289 
0.07000    12418220.61204004 
0.07100    12166184.36213541 
0.07200    11924678.52435064 
0.07300    11692490.83705074 
0.07400    11468410.19224274 
0.07500    11251352.01226753 
0.07600    11040299.12568921 
0.07700    10834340.83041054 
0.07800    10632579.74404377 
0.07900    10434265.55339009 
0.08000    10238725.48052740 
0.08100    10045345.93672228 
0.08200    9853573.66575271 
0.08300    9662980.50670642 
0.08400    9473192.99486321 
0.08500    9283912.15294671 
0.08600    9094904.82658738 
0.08700    8906002.39715648 
0.08800    8717089.08175838 
0.08900    8528133.47189319 
0.09000    8339139.17014986 
0.09100    8150142.04854000 
0.09200    7961234.79103440 
0.09300    7772574.57137209 
0.09400    7584274.55271178 
0.09500    7396557.83537686 
0.09600    7209634.11992687 
0.09700    7023738.25061044 
0.09800    6839101.02650872 
0.09900    6655987.50803655 
0.10000    6474614.42001241 
0.10100    6295266.81826672 
0.10200    6118206.62665474 
0.10300    5943651.09007990 
0.10400    5771860.01450750 
0.10500    5603080.86129892 
0.10600    5437448.44081286 
0.10700    5275238.14550966 
0.10800    5116583.78806740 
0.10900    4961653.77392104 
0.11000    4810586.43639919 
0.11100    4663502.62076703 
0.11200    4520480.62295723 
0.11300    4381606.50608009 
0.11400    4246943.60181257 
0.11500    4116502.54154283 
0.11600    3990300.51407799 
0.11700    3868341.28017476 
0.11800    3750555.41980386 
0.11900    3636934.70512369 
0.12000    3527399.42025414 
0.12100    3421906.29445989 
0.12200    3320325.41750835 
0.12300    3222570.26334199 
0.12400    3128520.18297394 
0.12500    3038057.22921784 
0.12600    2951079.91720420 
0.12700    2867414.00054398 
0.12800    2786935.49107130 
0.12900    2709516.60101977 
0.13000    2635003.78621960 
0.13100    2563247.79035720 
0.13200    2494118.74849086 
0.13300    2427488.16796720 
0.13400    2363207.72276148 
0.13500    2301152.27891938 
0.13600    2241195.49254349 
0.13700    2183220.69180922 
0.13800    2127111.27763729 
0.13900    2072775.86887445 
0.14000    2020105.43317427 
0.14100    1969015.03992049 
0.14200    1919414.98811698 
0.14300    1871236.33083956 
0.14400    1824397.75439194 
0.14500    1778863.68581422 
0.14600    1734568.78279130 
0.14700    1691463.21107086 
0.14800    1649502.13777781 
0.14900    1608650.90884134 
0.15000    1568889.29409686 
0.15100    1530186.00744121 
0.15200    1492534.62695799 
0.15300    1455895.36481215 
0.15400    1420257.58875897 
0.15500    1385621.59899061 
0.15600    1351965.12740119 
0.15700    1319300.99132858 
0.15800    1287590.05623208 
0.15900    1256853.13038486 
0.16000    1227065.89703687 
0.16100    1198244.67122026 
0.16200    1170353.31739541 
0.16300    1143393.09916271 
0.16400    1117362.36407993 
0.16500    1092236.52284064 
0.16600    1068016.17847084 
0.16700    1044663.42175529 
0.16800    1022171.97129879 
0.16900    1000540.02892066 
0.17000    979720.90133734 
0.17100    959700.52643304 
0.17200    940456.40090337 
0.17300    921958.89323971 
0.17400    904186.44655078 
0.17500    887101.15539305 
0.17600    870662.84076199 
0.17700    854863.93942274 
0.17800    839649.89523051 
0.17900    825006.83498064 
0.18000    810889.43580939 
0.18100    797281.67871052 
0.18200    784111.15617011 
0.18300    771384.54618413 
0.18400    759052.27425930 
0.18500    747093.89730908 
0.18600    735470.11701862 
0.18700    724159.51798517 
0.18800    713126.09148003 
0.18900    702365.83957439 
0.19000    691818.16562037 
0.19100    681515.32914717 
0.19200    671380.44206019 
0.19300    661441.78972112 
0.19400    651649.27176743 
0.19500    642008.64425780 
0.19600    632501.06630387 
0.19700    623120.64782427 
0.19800    613850.91495867 
0.19900    604699.92282125 
0.20000    595642.53182612 
0.20100    586693.35032525 
0.20200    577839.83748873 
0.20300    569090.22404842 
0.20400    560434.05955347 
0.20500    551880.26048946 
0.20600    543420.77245244 
0.20700    535075.63479842 
0.20800    526830.33545139 
0.20900    518715.15495130 
0.21000    510697.40811230 
0.21100    502810.26714087 
0.21200    495043.76664275 
0.21300    487404.68373106 
0.21400    479902.93528223 
0.21500    472545.35168339 
0.21600    465317.90310059 
0.21700    458237.43220072 
0.21800    451304.70041922 
0.21900    444512.41303580 
0.22000    437872.28147105 
0.22100    431388.63723582 
0.22200    425056.18087772 
0.22300    418866.71456157 
0.22400    412824.49420887 
0.22500    406943.42711765 
0.22600    401195.02354115 
0.22700    395599.96303619 
0.22800    390142.31767234 
0.22900    384816.29384162 
0.23000    379632.83953136 
0.23100    374573.75178121 
0.23200    369639.04521757 
0.23300    364828.51640981 
0.23400    360135.48974984 
0.23500    355545.20692635 
0.23600    351072.69621830 
0.23700    346699.43971468 
0.23800    342429.82523823 
0.23900    338247.54749740 
0.24000    334159.79502249 
0.24100    330168.74004642 
0.24200    326257.34270687 
0.24300    322425.47080297 
0.24400    318674.25026453 
0.24500    314996.64280140 
0.24600    311395.79650045 
0.24700    307869.74476993 
0.24800    304415.49607174 
0.24900    301027.39054672 
0.25000    297712.59958232 
0.25100    294461.68853400 
0.25200    291291.30527865 
0.25300    288182.81299789 
0.25400    285147.79307860 
0.25500    282179.70188880 
0.25600    279283.81048589 
0.25700    276456.64125181 
0.25800    273706.66072082 
0.25900    271026.65088426 
0.26000    268421.84342794 
0.26100    265884.67999692 
0.26200    263431.53441588 
0.26300    261040.95385263 
0.26400    258732.79690726 
0.26500    256498.80412708 
0.26600    254337.25966909 
0.26700    252253.54184976 
0.26800    250243.83453512 
0.26900    248301.06096895 
0.27000    246434.46520781 
0.27100    244630.56511439 
0.27200    242906.57918779 
0.27300    241238.39183594 
0.27400    239623.93369048 
0.27500    238083.68264305 
0.27600    236588.81762992 
0.27700    235155.91818506 
0.27800    233771.39045674 
0.27900    232430.49155684 
0.28000    231134.09055833 
0.28100    229872.72421627 
0.28200    228652.48681436 
0.28300    227458.09813273 
0.28400    226289.98183776 
0.28500    225147.01232765 
0.28600    224016.86602941 
0.28700    222901.94059620 
0.28800    221797.58107834 
0.28900    220700.68607271 
0.29000    219601.84357427 
0.29100    218506.43377614 
0.29200    217405.72891269 
0.29300    216296.91397875 
0.29400    215173.32753943 
0.29500    214043.22921768 
0.29600    212892.81842241 
0.29700    211724.22404634 
0.29800    210540.84290208 
0.29900    209336.82215542 
0.30000    208107.92406519 
0.30100    206860.53225960 
0.30200    205588.20560684 
0.30300    204297.70680287 
0.30400    202984.03501735 
0.30500    201645.21170473 
0.30600    200286.78514970 
0.30700    198914.41890713 
0.30800    197519.94855421 
0.30900    196112.77140200 
0.31000    194688.58857413 
0.31100    193256.06499530 
0.31200    191811.33271698 
0.31300    190362.05864694 
0.31400    188907.40494988 
0.31500    187449.00760703 
0.31600    185994.62451275 
0.31700    184547.20144511 
0.31800    183098.36395072 
0.31900    181671.81571931 
0.32000    180250.24234794 
0.32100    178845.10335664 
0.32200    177461.92656432 
0.32300    176094.64083859 
0.32400    174752.82004967 
0.32500    173437.80089363 
0.32600    172147.44258302 
0.32700    170891.17108457 
0.32800    169669.71149672 
0.32900    168477.31252078 
0.33000    167323.93504250 
0.33100    166203.97441197 
0.33200    165126.77414616 
0.33300    164085.62096468 
0.33400    163084.99027715 
0.33500    162122.43373000 
0.33600    161199.79393930 
0.33700    160317.63736086 
0.33800    159476.64242886 
0.33900    158673.87505690 
0.34000    157907.63914714 
0.34100    157181.02503162 
0.34200    156497.46533217 
0.34300    155841.73256502 
0.34400    155226.91409241 
0.34500    154642.79786458 
0.34600    154093.26211818 
0.34700    153571.62780511 
0.34800    153076.09393270 
0.34900    152611.61054608 
0.35000    152170.21499003 
0.35100    151753.19541492 
0.35200    151354.08423076 
0.35300    150975.24082688 
0.35400    150613.68565350 
0.35500    150269.95914282 
0.35600    149938.84550627 
0.35700    149619.61589833 
0.35800    149312.12012363 
0.35900    149011.65155580 
0.36000    148721.80382174 
0.36100    148435.54565672 
0.36200    148158.14362665 
0.36300    147877.86717911 
0.36400    147600.23253072 
0.36500    147323.74795373 
0.36600    147054.49364671 
0.36700    146778.63343850 
0.36800    146508.05225473 
0.36900    146236.45152157 
0.37000    145955.03140905 
0.37100    145673.64674382 
0.37200    145396.83976429 
0.37300    145111.74071197 
0.37400    144829.99887476 
0.37500    144548.29325575 
0.37600    144259.80129144 
0.37700    143970.61818313 
0.37800    143685.44328656 
0.37900    143399.61376677 
0.38000    143112.65852901 
0.38100    142826.37903171 
0.38200    142541.92811721 
0.38300    142259.51165311 
0.38400    141983.80456173 
0.38500    141706.61221735 
0.38600    141441.70651549 
0.38700    141174.45694061 
0.38800    140915.29634496 
0.38900    140664.80926760 
0.39000    140421.75279544 
0.39100    140188.20638508 
0.39200    139964.30643619 
0.39300    139744.39989879 
0.39400    139542.11509597 
0.39500    139344.77775165 
0.39600    139159.81732265 
0.39700    138988.10946751 
0.39800    138829.21722666 
0.39900    138683.01371046 
0.40000    138550.17704429 
0.40100    138428.28003878 
0.40200    138325.88048787 
0.40300    138233.37763392 
0.40400    138157.78768919 
0.40500    138098.05755812 
0.40600    138057.98142249 
0.40700    138028.52274409 
0.40800    138015.77277612 
0.40900    138020.50372905 
0.41000    138046.06633922 
0.41100    138086.28407587 
0.41200    138142.66922151 
0.41300    138219.34981977 
0.41400    138315.80879414 
0.41500    138429.88294684 
0.41600    138558.16063003 
0.41700    138712.52360845 
0.41800    138887.29616410 
0.41900    139072.53069061 
0.42000    139287.25039826 
0.42100    139519.45484090 
0.42200    139773.47329275 
0.42300    140044.39976339 
0.42400    140336.97982846 
0.42500    140652.69529450 
0.42600    140985.55900259 
0.42700    141341.85779877 
0.42800    141716.91589384 
0.42900    142114.07083463 
0.43000    142529.45913218 
0.43100    142961.51346358 
0.43200    143414.60816687 
0.43300    143884.52030684 
0.43400    144370.06118123 
0.43500    144873.24189221 
0.43600    145398.54816125 
0.43700    145928.58692127 
0.43800    146471.06412170 
0.43900    147029.18992839 
0.44000    147595.30522390 
0.44100    148169.11554710 
0.44200    148752.53571111 
0.44300    149335.90999351 
0.44400    149926.75840079 
0.44500    150510.46003367 
0.44600    151096.64168983 
0.44700    151680.49566028 
0.44800    152256.32995736 
0.44900    152825.43862921 
0.45000    153386.95960288 
0.45100    153926.67927616 
0.45200    154456.42016502 
0.45300    154967.31314771 
0.45400    155458.08868261 
0.45500    155926.72362945 
0.45600    156370.52508605 
0.45700    156787.38124537 
0.45800    157175.47356296 
0.45900    157532.76007507 
0.46000    157862.79402902 
0.46100    158149.17261105 
0.46200    158407.96009224 
0.46300    158626.20732162 
0.46400    158809.35283602 
0.46500    158952.58918026 
0.46600    159056.97508600 
0.46700    159119.22513735 
0.46800    159146.69316815 
0.46900    159129.30108489 
0.47000    159073.89206245 
0.47100    158980.58723308 
0.47200    158848.01687720 
0.47300    158679.35249704 
0.47400    158470.74757874 
0.47500    158231.00390499 
0.47600    157958.54461286 
0.47700    157648.89719318 
0.47800    157313.91058191 
0.47900    156952.63709564 
0.48000    156561.01671612 
0.48100    156154.20625838 
0.48200    155717.88072350 
0.48300    155265.99806556 
0.48400    154803.32442379 
0.48500    154323.92907670 
0.48600    153837.58264892 
0.48700    153342.15055896 
0.48800    152840.66100926 
0.48900    152338.03435100 
0.49000    151837.08753684 
0.49100    151338.99530738 
0.49200    150845.15451497 
0.49300    150360.64508012 
0.49400    149883.81942182 
0.49500    149418.84069001 
0.49600    148968.62664558 
0.49700    148530.01251509 
0.49800    148111.63288694 
0.49900    147706.67666421 
